# Pulseq sequence file
# Created by PyPulseq

# Created for Pulseq-CEST
# https://pulseq-cest.github.io/
# Created by: DANIEL MIKSCH
# Created at: 21-Apr-2025 19:26:28

[VERSION]
major 1
minor 4
revision 2

[DEFINITIONS]
AdcRasterTime 1e-07 
B0 17 
BlockDurationRaster 1e-05 
FREQ 723.7988 
GradientRasterTime 1e-05 
M0_offset 0.0 
RadiofrequencyRasterTime 1e-06 
TotalDuration 0.004 
a 50 
n_ETM 1 
num_meas 1 
offsets_ppm 0 
seq_id_string 50_opt 

# Format of blocks:
# NUM DUR RF  GX  GY  GZ  ADC  EXT
[BLOCKS]
1 100   0   0   0   0  0  0
2 200   1   0   0   0  0  0
3 100   0   0   0   0  1  0

# Format of RF events:
# id amplitude mag_id phase_id time_shape_id delay freq phase
# ..        Hz   ....     ....          ....    us   Hz   rad
[RF]
1      192.852 1 2 3 0 0 0

# Format of ADC events:
# id num dwell delay freq phase
# ..  ..    ns    us   Hz   rad
[ADC]
1 1 1000000 0 0 0

# Sequence Shapes
[SHAPES]

shape_id 1
num_samples 286
1.93174023e-05
1.93194621e-05
1.93242534e-05
1.93455721e-05
1.94798217e-05
2.03888645e-05
2.66089609e-05
6.92324609e-05
0.000361375673
0.0023638012
0.0160888561
0.0297178477
0.0432511253
0.0566889917
0.070031735
0.0832795775
0.0964328481
0.109491589
0.122456422
0.135326845
0.148104335
0.160787115
0.173378348
0.185874182
0.198280032
0.210589907
0.222811044
0.234936175
0.246973359
0.258914814
0.270768953
0.2825276
0.294199468
0.305776237
0.317266287
0.328662369
0.339971135
0.351187735
0.362316311
0.373354401
0.384304124
0.395164436
0.405936283
0.41661921
0.427213542
0.437719055
0.448135768
0.458463589
0.468702437
0.478852352
0.488913289
0.498885381
0.508768682
0.518563316
0.528269496
0.537887281
0.547416942
0.556858512
0.566212186
0.575478057
0.584656267
0.593746969
0.602750314
0.611666469
0.620495589
0.629237825
0.637893307
0.646462158
0.654944469
0.66334031
0.671649719
0.6798727
0.688009216
0.69605919
0.704022498
0.711898953
0.719688311
0.727390274
0.735004473
0.742530475
0.749967774
0.75731579
0.764573872
0.771741296
0.778817268
0.785800925
0.792691341
0.799487538
0.806188484
0.812793108
0.819300308
0.825708959
0.832017926
0.838226082
0.84433232
0.850335568
0.856234794
0.862029023
0.86771734
0.873298904
0.878772947
0.884138789
0.889395832
0.894543569
0.899581581
0.904509533
0.909327161
0.91403427
0.918630689
0.923116248
0.927490584
0.931752922
0.93590214
0.939936879
0.943855658
0.947656964
0.951339164
0.954900462
0.958338847
0.961651953
0.964836822
0.967889368
0.970802751
0.9735619
0.97616276
0.978614686
0.980919464
0.983084868
0.985114233
0.987009507
0.988771903
0.990402596
0.991902288
0.993272249
0.994512926
0.99562601
0.996612245
0.997472622
0.998208218
0.998818236
0.999302993
0.999662172
0.999894629
1
0.999973279
0.999819309
0.999538734
0.999132396
0.998601004
0.997944358
0.997162017
0.996253855
0.99521847
0.994054987
0.992762316
0.991339736
0.989786629
0.988102378
0.986286328
0.984337795
0.982255876
0.980039233
0.977685342
0.975186681
0.972544735
0.969768986
0.966863533
0.963831925
0.960676104
0.957398254
0.954000756
0.950482884
0.946844191
0.943085263
0.939207313
0.935211636
0.931099344
0.926871285
0.92252801
0.918069783
0.91349683
0.908809411
0.904007848
0.899092539
0.894063962
0.888922682
0.883669352
0.878304703
0.872829551
0.867244782
0.861551351
0.855750267
0.849842587
0.843829398
0.837711812
0.83149094
0.82516789
0.818743744
0.812219552
0.805596314
0.798874977
0.792056417
0.785141442
0.778130773
0.771025055
0.763824844
0.756530608
0.749142732
0.741661515
0.734087176
0.726419849
0.718659603
0.710806433
0.70286028
0.694821021
0.686688472
0.67846241
0.670142575
0.661728667
0.653220359
0.644617304
0.635919127
0.627125452
0.618235885
0.609250042
0.600167546
0.59098803
0.581711148
0.572336566
0.562863938
0.553292928
0.543623154
0.533854268
0.523985932
0.514017825
0.503949685
0.493781239
0.483512255
0.473142572
0.462672041
0.452100614
0.441428261
0.430654994
0.419780853
0.408805865
0.397730033
0.38655329
0.375275502
0.363896411
0.352415694
0.340832893
0.329147549
0.317359119
0.305467091
0.293470959
0.281370226
0.26916446
0.256853237
0.244436182
0.231912958
0.219283234
0.206546712
0.193703091
0.180752081
0.167693392
0.154526722
0.141251786
0.127868291
0.114375942
0.100774424
0.0870634096
0.0732425569
0.0593115234
0.0452699551
0.0311174754
0.0168536759
0.00247809268
0.000380769493
7.47872724e-05
3.01491461e-05
2.36392398e-05
2.26919486e-05
2.25561661e-05
2.25387614e-05
2.25385901e-05
2.25405917e-05

shape_id 2
num_samples 286
0
0
284

shape_id 3
num_samples 286
3.4965035
6.993007
6.993007
4
6.9930069
6.993007
6.993007
11
6.9930069
6.993007
6.993007
12
6.9930069
6.993007
6.993007
11
6.9930069
6.993007
6.993007
11
6.9930069
6.993007
6.993007
12
6.9930069
6.993007
6.993007
11
6.9930069
6.993007
6.993007
11
6.9930069
6.993007
6.993007
12
6.9930069
6.993007
6.993007
11
6.9930069
6.993007
6.993007
11
6.9930069
6.993007
6.993007
11
6.9930069
6.993007
6.993007
12
6.9930069
6.993007
6.993007
11
6.9930069
6.993007
6.993007
11
6.9930069
6.993007
6.993007
12
6.9930069
6.993007
6.993007
11
6.9930069
6.993007
6.993007
11
6.9930069
6.993007
6.993007
12
6.9930069
6.993007
6.993007
11
6.9930069
6.993007
6.993007
4


[SIGNATURE]
# This is the hash of the Pulseq file, calculated right before the [SIGNATURE] section was added
# It can be reproduced/verified with md5sum if the file trimmed to the position right above [SIGNATURE]
# The new line character preceding [SIGNATURE] BELONGS to the signature (and needs to be stripped away for recalculating/verification)
Type md5
Hash 68b5f2a68f85bed21d8d74a006699860
