# Pulseq sequence file
# Created by PyPulseq

# Created for Pulseq-CEST
# https://pulseq-cest.github.io/
# Created by: DANIEL MIKSCH
# Created at: 11-Feb-2025 18:20:42

[VERSION]
major 1
minor 4
revision 2

[DEFINITIONS]
AdcRasterTime 1e-07 
B0 17 
BlockDurationRaster 1e-05 
FREQ 723.7988 
GradientRasterTime 1e-05 
M0_offset -100 
RadiofrequencyRasterTime 1e-06 
TotalDuration 0.088 
a 90 
n_ETM 1 
num_meas 1 
offsets_ppm -100 
seq_id_string ETM_optimized_minus 

# Format of blocks:
# NUM DUR RF  GX  GY  GZ  ADC  EXT
[BLOCKS]
1 200   1   0   0   0  0  0
2  50   0   0   0   1  0  0
3 200   2   0   0   0  0  0
4 8000   0   0   0   2  0  0
5 200   3   0   0   0  0  0
6  50   0   0   0   1  0  0
7 100   0   0   0   0  1  0

# Format of RF events:
# id amplitude mag_id phase_id time_shape_id delay freq phase
# ..        Hz   ....     ....          ....    us   Hz   rad
[RF]
1      504.252 1 2 3 0 -72379.9 0
2      504.659 6 7 3 0 -72379.9 0
3      497.933 10 11 3 0 0 0

# Format of arbitrary gradients:
#   time_shape_id of 0 means default timing (stepping with grad_raster starting at 1/2 of grad_raster)
# id amplitude amp_shape_id time_shape_id delay
# ..      Hz/m       ..         ..          us
[GRADIENTS]
1  5.56899e+07 4 5 0
2  5.05808e+08 8 9 0

# Format of ADC events:
# id num dwell delay freq phase
# ..  ..    ns    us   Hz   rad
[ADC]
1 1 1000000 0 0 0

# Sequence Shapes
[SHAPES]

shape_id 1
num_samples 286
0.00140382972
0.000884873626
0.00140088006
0.000893666913
0.00139950753
0.000902490106
0.00139927184
0.000912022837
0.00140043274
0.000922956006
0.00140307352
0.000935604037
0.00140773049
0.000950741569
0.00141496931
0.000969228099
0.000966051382
0.000992021033
0.000980334396
0.000926889629
0.0010008212
0.000968234703
0.00102921333
0.00102121645
0.00106800874
0.0010776318
0.00102073642
0.000707824921
0.000985237922
0.00197137472
0.00100268133
0.00329699254
0.000940474079
0.004636466
0.000949706576
0.00594960232
0.000987844963
0.00721637055
0.000954022097
0.00844068243
0.000927665717
0.00965189417
0.00137498634
0.0108911943
0.000925234647
0.0121165461
0.000991988794
0.0132487169
0.000961401221
0.0143727715
0.00142037844
0.0155868799
0.0013501265
0.016966673
0.000779562885
0.01858376
5.28208784e-05
0.020512079
0.00209605399
0.022828714
0.00499027552
0.0256147896
0.00844217681
0.028956418
0.0125310391
0.0329444686
0.0173486636
0.0376703001
0.0230160596
0.0430794012
0.0298530627
0.0495013481
0.0374909717
0.0571298071
0.0462719919
0.0659719522
0.0563424891
0.0761454363
0.0678359728
0.0877737423
0.0808846313
0.100979737
0.0956188966
0.115881558
0.112164441
0.132588984
0.130639112
0.151199898
0.151149874
0.171795632
0.173788259
0.194436895
0.198627377
0.219159245
0.225716791
0.245969673
0.255077655
0.274843599
0.286696513
0.305725264
0.32051673
0.338529627
0.356428468
0.373147777
0.394260128
0.409448014
0.433776311
0.447270553
0.474687413
0.48641305
0.516666346
0.526617033
0.559361179
0.567562394
0.602402209
0.608869581
0.645407445
0.650104918
0.687975259
0.69083144
0.729598094
0.730710177
0.769701563
0.769301065
0.80786465
0.806056686
0.843680891
0.840466305
0.876725349
0.87205352
0.90658396
0.900374684
0.932867613
0.92502559
0.955223167
0.945650649
0.973341468
0.961949463
0.986965886
0.973684395
0.995898317
0.980687064
1
0.982877397
0.999061304
0.980442379
0.993265618
0.972939621
0.982811058
0.960704279
0.967716157
0.943940643
0.948186605
0.922900465
0.924493473
0.897891753
0.896962265
0.869273518
0.865964191
0.837447882
0.831907482
0.802851279
0.795227331
0.76594545
0.756376322
0.727208234
0.715814246
0.687123522
0.673998786
0.6461727
0.631376593
0.604824152
0.58837718
0.563523735
0.545408571
0.522682859
0.502857319
0.482665603
0.461090583
0.443778279
0.420456407
0.406265792
0.381275806
0.370319815
0.343827619
0.336093907
0.308333271
0.303715106
0.274950181
0.273289493
0.2437717
0.244905073
0.214830653
0.21862237
0.188146845
0.194384922
0.163825329
0.172055225
0.141854124
0.151629673
0.122091936
0.133095083
0.104407837
0.116391276
0.0886729466
0.101433408
0.0747536707
0.0881214718
0.062512598
0.0763450714
0.0518115693
0.0659863762
0.042514065
0.0569238834
0.0344880284
0.0490345823
0.0276084717
0.0421919035
0.0217746435
0.0361546041
0.0170904271
0.0309225139
0.0129618929
0.0265781229
0.00951041836
0.0228749857
0.00666813197
0.019717395
0.00435858527
0.017022938
0.00251256234
0.01471748
0.00106881378
0.0127340827
2.50188887e-05
0.011012214
0.000482898131
0.00949712902
0.000636430705
0.00813857305
0.000783053963
0.00689031887
0.000977651962
0.00570910297
0.000989396426
0.0045550533
0.000928525892
0.00339200867
0.000880025308
0.00219083451
0.000114665363
0.000934828397
0.00100817298
0.00092786732
0.00203064603
0.000997721506
0.00312810989
0.000974557708
0.00423821891
0.0008942592
0.00530565713
0.00106042249
0.00629371931
0.00101088619
0.00718832717
0.000972742814
0.00799876029
0.000943539972
0.00874672943
0.000921222345
0.00937657691
0.00138017491
0.00977350182
0.00136795944
0.00998193194
0.00135897342
0.0100657015
0.00135225811
0.010058531
0.00134755968
0.00998342777
0.00134444564
0.00985823696
0.00134262054
0.00969638916
0.00134216579

shape_id 2
num_samples 286
0
0
232
0.5
-0.5
0
0
48

shape_id 3
num_samples 286
3.4965035
6.993007
6.993007
4
6.9930069
6.993007
6.993007
11
6.9930069
6.993007
6.993007
12
6.9930069
6.993007
6.993007
11
6.9930069
6.993007
6.993007
11
6.9930069
6.993007
6.993007
12
6.9930069
6.993007
6.993007
11
6.9930069
6.993007
6.993007
11
6.9930069
6.993007
6.993007
12
6.9930069
6.993007
6.993007
11
6.9930069
6.993007
6.993007
11
6.9930069
6.993007
6.993007
11
6.9930069
6.993007
6.993007
12
6.9930069
6.993007
6.993007
11
6.9930069
6.993007
6.993007
11
6.9930069
6.993007
6.993007
12
6.9930069
6.993007
6.993007
11
6.9930069
6.993007
6.993007
11
6.9930069
6.993007
6.993007
12
6.9930069
6.993007
6.993007
11
6.9930069
6.993007
6.993007
4

shape_id 4
num_samples 500
0
0.02
0.02
48
0
0
398
-0.0204082
-0.0204081
-0.0204082
-0.0204082
0
-0.0204081
-0.0204082
-0.0204081
-0.0204082
-0.0204082
0
-0.0204081
-0.0204082
-0.0204082
0
-0.0204081
-0.0204082
-0.0204081
-0.0204082
-0.0204082
0
-0.0204081
-0.0204082
-0.0204082
0
-0.0204081
-0.0204082
-0.0204082
0
-0.0204081
-0.0204082
-0.0204081
-0.0204082
-0.0204082
0
-0.0204081
-0.0204082
-0.0204082
0
-0.0204081
-0.0204082
-0.0204082
0
-0.0204081
-0.0204082
-0.0204081
-0.0204082
-0.0204082
0
-0.0204081
-0.0204082
-0.0204082
0
-0.0204081
-0.0204082
-0.0204081
-0.0204082
-0.0204082
0
-0.0204081
-0.0204082

shape_id 5
num_samples 500
0.05
0.1
0.1
497

shape_id 6
num_samples 286
0.00954509873
0.000990936011
0.00948122089
0.00100066226
0.00940277469
0.00101183057
0.00930728484
0.000956875162
0.00919173691
0.000976199173
0.00905147965
0.000998018307
0.00888027368
0.000955632304
0.00866888569
0.000990944137
0.00840361631
0.000966805731
0.00806184366
0.000958481222
0.00760479345
0.000975401202
0.0069584446
0.000976055816
0.00596245806
0.000991798647
0.00417970282
0.00103111942
0.000809241891
0.00375417945
0.00102086683
0.00604857408
0.000984475369
0.007354208
0.000950361893
0.00827284469
0.00100611779
0.00901647017
0.00102731738
0.0096874372
0.000978915771
0.0103480513
0.000992963366
0.011043717
0.00139925081
0.0118133644
0.00141411624
0.0126945028
0.0010619866
0.0137256111
0.00133779926
0.0149482984
0.00118967825
0.0164088381
0.000727065742
0.0181586214
0.000100077715
0.0202557365
0.00231567943
0.0227650509
0.00500235395
0.0257588383
0.00823448696
0.0293174446
0.0120954144
0.0335292488
0.0166767895
0.0384904865
0.0220789482
0.0443052691
0.0284100292
0.0510847703
0.0357853766
0.0589461268
0.0443266059
0.0680116977
0.0541600462
0.078406599
0.0654150829
0.0902569333
0.0782217056
0.103687319
0.0927086155
0.118817363
0.108999976
0.135758013
0.127212267
0.154607715
0.147452301
0.175447261
0.169813916
0.198333686
0.194377351
0.223291763
0.221209819
0.250302572
0.250373935
0.279280518
0.281955434
0.310018788
0.316158152
0.341998327
0.353746724
0.373361695
0.395461502
0.407003711
0.436046677
0.444325338
0.476942519
0.483628129
0.518518368
0.524240123
0.560669281
0.565675626
0.603130323
0.607487368
0.645555942
0.649226555
0.687549569
0.690433276
0.728680772
0.730636424
0.76849699
0.769357671
0.806534887
0.80611894
0.842330562
0.840450617
0.875429605
0.871900412
0.905397931
0.900042898
0.931830823
0.924488213
0.954363146
0.944891565
0.972677102
0.960960086
0.986510475
0.972460563
0.995662787
0.97922483
1
0.981153329
0.999458011
0.978218111
0.994044184
0.97046329
0.983837
0.958004041
0.968984273
0.941023879
0.949699257
0.919770272
0.926255523
0.894548857
0.898980124
0.865716694
0.868245483
0.833674187
0.834460689
0.798856429
0.798061325
0.761724333
0.7594991
0.722757429
0.719229242
0.682446158
0.677697847
0.641288732
0.63532453
0.599793602
0.592475764
0.558502946
0.549404102
0.518081041
0.506049169
0.479735465
0.461016214
0.444796552
0.417912127
0.408459811
0.378331251
0.372582232
0.341122922
0.338027986
0.306107566
0.305175038
0.273280754
0.274235567
0.24266943
0.245334465
0.214291741
0.218537466
0.188144844
0.193865043
0.164201776
0.171301047
0.142411654
0.15079952
0.122702279
0.132289694
0.104983664
0.11568171
0.0891508093
0.100870534
0.0750881164
0.0877403931
0.0626723161
0.0761687545
0.0517758896
0.0660290181
0.0422697327
0.057193991
0.0340261568
0.0495381874
0.026920434
0.0429393937
0.0208330511
0.0372809919
0.0156508031
0.032452536
0.0112676927
0.0283509211
0.00758605505
0.0248806263
0.00451691642
0.0219540539
0.00197978243
0.0194916028
9.66288291e-05
0.0174210109
0.000643476482
0.0156768953
0.00120385919
0.014199953
0.000980872131
0.012936248
0.0010294088
0.011835076
0.000992160117
0.0108461784
0.00106323436
0.00991545384
0.00106162669
0.00897720364
0.00101908586
0.00793467741
0.000981225514
0.00660948029
0.00103466202
0.00455981845
0.00106935665
0.000106996479
0.00329460275
0.00100522812
0.00560763957
0.000971301093
0.00678181919
0.000974746308
0.00750357818
0.000995398239
0.00799539877
0.000998588698
0.00835288198
0.000954714633
0.00862430057
0.000998285032
0.0088366485
0.000975789795
0.0090059984
0.00104230332
0.0091429267
0.00103092061
0.00925423707
0.00102275186
0.00934473867
0.00101680917
0.00941775501
0.00101279911
0.00947581298
0.00101023081
0.00952075531
0.00100871338
0.00955364488
0.00100815399

shape_id 7
num_samples 286
0
0
228
0.5
-0.5
0
0
52

shape_id 8
num_samples 80000
0
0.02
0.02
48
0
0
79898
-0.0204082
-0.0204081
-0.0204082
-0.0204082
0
-0.0204081
-0.0204082
-0.0204081
-0.0204082
-0.0204082
0
-0.0204081
-0.0204082
-0.0204082
0
-0.0204081
-0.0204082
-0.0204081
-0.0204082
-0.0204082
0
-0.0204081
-0.0204082
-0.0204082
0
-0.0204081
-0.0204082
-0.0204082
0
-0.0204081
-0.0204082
-0.0204081
-0.0204082
-0.0204082
0
-0.0204081
-0.0204082
-0.0204082
0
-0.0204081
-0.0204082
-0.0204082
0
-0.0204081
-0.0204082
-0.0204081
-0.0204082
-0.0204082
0
-0.0204081
-0.0204082
-0.0204082
0
-0.0204081
-0.0204082
-0.0204081
-0.0204082
-0.0204082
0
-0.0204081
-0.0204082

shape_id 9
num_samples 80000
0.05
0.1
0.1
79997

shape_id 10
num_samples 286
0.00100807842
0.00100872733
0.00100959182
0.00101052934
0.0010117073
0.00101293427
0.00101452524
0.000998148039
0.00100046417
0.00100286513
0.00100589465
0.00100918943
0.000994626095
0.000999107851
0.0010046776
0.000991070445
0.000998566808
0.00100684129
0.00099565711
0.00100693163
0.000997342543
0.00101232254
0.00100501683
0.000997554018
0.0010208704
0.00101723497
0.00101481276
0.00101303827
0.00101300507
0.00101439671
0.00101848587
0.0010251199
0.0010359162
0.00105088654
0.00107185162
0.00102355948
0.00105424538
0.00109381308
0.00104834523
0.000998533632
0.00106493702
0.00102196578
0.000978050377
0.000933264414
0.000888023206
0.000645415561
0.000575694489
0.000241775727
0.000121905004
0.000305183635
0.00084879406
0.00145157864
0.00211919579
0.00285764725
0.00367316941
0.00457269235
0.00556363389
0.00665355054
0.00785093992
0.00916448537
0.010603468
0.0121776978
0.013897535
0.0157739194
0.0178181925
0.0200423204
0.0224586282
0.0250803021
0.0279205584
0.0309935053
0.0343133395
0.0378949924
0.0417533476
0.045904158
0.0503629975
0.0551460236
0.0602691036
0.0657488132
0.0716011083
0.0778422719
0.0844884537
0.0915553325
0.0990584528
0.107012803
0.115432718
0.124332082
0.133723716
0.143619906
0.154031357
0.164967941
0.176438081
0.188448922
0.201005656
0.214112129
0.22777012
0.241979458
0.256737803
0.272040784
0.287881512
0.304250801
0.321136667
0.338524857
0.356398219
0.374737069
0.393518499
0.412717331
0.432305214
0.452251015
0.472520936
0.493078504
0.513884169
0.534896329
0.55607033
0.577359408
0.598714723
0.620085087
0.641417379
0.662657094
0.683747809
0.704632313
0.72525211
0.745547892
0.765460073
0.784928783
0.80389426
0.822297177
0.840079006
0.857181884
0.873549802
0.889127954
0.903863833
0.917706731
0.930608805
0.942524919
0.953413118
0.963234391
0.971953591
0.97953924
0.985963732
0.991203678
0.995239933
0.998057562
0.999646185
1
0.999117637
0.997002424
0.993662125
0.989109016
0.983359869
0.976435664
0.968361691
0.959167146
0.948885162
0.937552596
0.925209505
0.911899493
0.897668864
0.882566618
0.866644326
0.84995553
0.832555534
0.814501316
0.795850812
0.776663149
0.756997792
0.736914669
0.716473362
0.695733622
0.674754288
0.65359334
0.632307714
0.610953063
0.589583377
0.568250762
0.547005645
0.525895908
0.504967441
0.484263501
0.463824977
0.443689986
0.423893957
0.404469585
0.385446626
0.366852265
0.348710646
0.331043195
0.313868537
0.297202708
0.281058815
0.265447809
0.250377737
0.235854421
0.221881462
0.208460102
0.195589681
0.183267643
0.171489434
0.160248962
0.149538743
0.139349513
0.129671064
0.120491985
0.111799906
0.103581296
0.0958222607
0.0885080804
0.0816234585
0.075152864
0.0690803877
0.0633899076
0.0580651211
0.0530897978
0.0484477243
0.0441228835
0.0400993661
0.0363615515
0.032893927
0.0296817814
0.0267103054
0.0239654882
0.0214335286
0.019101112
0.0169556506
0.0149848267
0.013176858
0.0115208321
0.0100057747
0.00862177135
0.00735915679
0.00620891775
0.00516249693
0.00421168058
0.00334901956
0.00256740067
0.00186008229
0.0012209511
0.000644272825
0.000124433114
0.000250643526
0.000358050168
0.000670051716
0.000734009072
0.000794274256
0.00100474276
0.00104632428
0.000962346647
0.00101413045
0.00106311088
0.00101282764
0.00106439508
0.00103050432
0.00108000099
0.00105694235
0.00104010967
0.00102823319
0.00102050898
0.00101609103
0.00101420611
0.00101425375
0.00101571635
0.00101835718
0.00102172964
0.00102576442
0.00100396971
0.00101129982
0.000994828894
0.00100447614
0.00101393823
0.00100330313
0.000994065129
0.00100608426
0.000999257468
0.000993342352
0.00100680596
0.0010024976
0.000998784714
0.00099558087
0.00101023776
0.0010079374
0.00100593242
0.00100423447
0.00100283207
0.00100163609
0.00100053503
0.000999640173
0.00099894091

shape_id 11
num_samples 286
0
0
284


[SIGNATURE]
# This is the hash of the Pulseq file, calculated right before the [SIGNATURE] section was added
# It can be reproduced/verified with md5sum if the file trimmed to the position right above [SIGNATURE]
# The new line character preceding [SIGNATURE] BELONGS to the signature (and needs to be stripped away for recalculating/verification)
Type md5
Hash 8537bb4d4075a47e225a00469661b26d
