# Pulseq sequence file
# Created by PyPulseq

# Created for Pulseq-CEST
# https://pulseq-cest.github.io/
# Created by: DANIEL MIKSCH
# Created at: 28-Dec-2024 00:30:03

[VERSION]
major 1
minor 4
revision 2

[DEFINITIONS]
AdcRasterTime 1e-07 
B0 17 
BlockDurationRaster 1e-05 
FREQ 723.7988 
GradientRasterTime 1e-05 
M0_offset 2 
RadiofrequencyRasterTime 1e-06 
TotalDuration 0.156 
a 90 
num_meas 1 
offsets_ppm 2 
seq_id_string normal_SE 

# Format of blocks:
# NUM DUR RF  GX  GY  GZ  ADC  EXT
[BLOCKS]
1 250   1   0   0   0  0  0
2 5000   0   0   0   1  0  0
3 250   2   0   0   0  0  0
4 10000   0   0   0   2  0  0
5 100   0   0   0   0  1  0

# Format of RF events:
# id amplitude mag_id phase_id time_shape_id delay freq phase
# ..        Hz   ....     ....          ....    us   Hz   rad
[RF]
1      399.999 1 2 0 0 1447.6 0
2      799.999 1 2 0 0 1447.6 0

# Format of arbitrary gradients:
#   time_shape_id of 0 means default timing (stepping with grad_raster starting at 1/2 of grad_raster)
# id amplitude amp_shape_id time_shape_id delay
# ..      Hz/m       ..         ..          us
[GRADIENTS]
1  5.32205e+06 3 4 0
2  5.32205e+06 5 6 0

# Format of ADC events:
# id num dwell delay freq phase
# ..  ..    ns    us   Hz   rad
[ADC]
1 1 1000000 0 0 0

# Sequence Shapes
[SHAPES]

shape_id 1
num_samples 2500
3.5e-06
1e-07
1e-07
0
0
1e-07
1e-07
2
0
1e-07
1e-07
5
0
1e-07
1e-07
2
2e-07
1e-07
1e-07
5
2e-07
1e-07
1e-07
1
2e-07
1e-07
1e-07
0
2e-07
1e-07
2e-07
1e-07
2e-07
1e-07
2e-07
1e-07
2e-07
2e-07
0
1e-07
2e-07
2e-07
1
1e-07
2e-07
2e-07
9
3e-07
2e-07
2e-07
0
3e-07
2e-07
3e-07
2e-07
3e-07
2e-07
3e-07
3e-07
0
2e-07
3e-07
3e-07
7
4e-07
3e-07
3e-07
0
4e-07
3e-07
4e-07
4e-07
0
3e-07
4e-07
4e-07
5
5e-07
4e-07
5e-07
4e-07
5e-07
4e-07
5e-07
5e-07
4
6e-07
5e-07
5e-07
0
6e-07
6e-07
0
5e-07
6e-07
6e-07
1
7e-07
6e-07
6e-07
0
7e-07
7e-07
0
6e-07
7e-07
7e-07
2
8e-07
7e-07
8e-07
8e-07
5
9e-07
9e-07
4
1e-06
9e-07
1e-06
1e-06
1
1.1e-06
1e-06
1.1e-06
1.1e-06
3
1.2e-06
1.2e-06
2
1.3e-06
1.2e-06
1.3e-06
1.3e-06
1
1.4e-06
1.3e-06
1.4e-06
1.5e-06
1.4e-06
1.5e-06
1.5e-06
2
1.6e-06
1.6e-06
2
1.7e-06
1.7e-06
1
1.8e-06
1.8e-06
2
1.9e-06
1.9e-06
1
2e-06
2e-06
1
2.1e-06
2.1e-06
1
2.2e-06
2.1e-06
2.3e-06
2.3e-06
2
2.4e-06
2.4e-06
0
2.5e-06
2.5e-06
1
2.6e-06
2.6e-06
0
2.7e-06
2.7e-06
1
2.8e-06
2.8e-06
0
2.9e-06
2.9e-06
0
3e-06
3e-06
0
3.1e-06
3.1e-06
0
3.2e-06
3.2e-06
1
3.4e-06
3.3e-06
3.4e-06
3.5e-06
3.6e-06
3.5e-06
3.7e-06
3.7e-06
1
3.8e-06
3.9e-06
3.9e-06
0
4e-06
4.1e-06
4.1e-06
0
4.2e-06
4.2e-06
0
4.3e-06
4.4e-06
4.5e-06
4.5e-06
1
4.7e-06
4.7e-06
0
4.8e-06
4.9e-06
4.9e-06
0
5e-06
5.1e-06
5.2e-06
5.3e-06
5.3e-06
0
5.4e-06
5.5e-06
5.6e-06
5.6e-06
0
5.8e-06
5.8e-06
0
5.9e-06
6e-06
6.1e-06
6.2e-06
6.3e-06
6.4e-06
6.5e-06
6.5e-06
0
6.7e-06
6.8e-06
6.8e-06
0
7e-06
7.1e-06
7.1e-06
0
7.3e-06
7.4e-06
7.5e-06
7.6e-06
7.7e-06
7.9e-06
7.9e-06
0
8.1e-06
8.2e-06
8.3e-06
8.4e-06
8.6e-06
8.7e-06
8.8e-06
8.9e-06
9.1e-06
9.1e-06
0
9.4e-06
9.4e-06
0
9.6e-06
9.8e-06
9.9e-06
1e-05
1.01e-05
1.03e-05
1.05e-05
1.06e-05
1.08e-05
1.09e-05
1.11e-05
1.12e-05
1.14e-05
1.15e-05
1.18e-05
1.18e-05
0
1.21e-05
1.22e-05
1.24e-05
1.26e-05
1.27e-05
1.3e-05
1.31e-05
1.33e-05
1.35e-05
1.36e-05
1.39e-05
1.41e-05
1.42e-05
1.45e-05
1.46e-05
1.49e-05
1.51e-05
1.52e-05
1.55e-05
1.57e-05
1.59e-05
1.62e-05
1.63e-05
1.66e-05
1.69e-05
1.7e-05
1.73e-05
1.75e-05
1.78e-05
1.8e-05
1.82e-05
1.85e-05
1.88e-05
1.9e-05
1.93e-05
1.95e-05
1.98e-05
2e-05
2.04e-05
2.06e-05
2.09e-05
2.11e-05
2.15e-05
2.17e-05
2.21e-05
2.23e-05
2.26e-05
2.3e-05
2.32e-05
2.35e-05
2.39e-05
2.42e-05
2.45e-05
2.48e-05
2.52e-05
2.55e-05
2.58e-05
2.61e-05
2.66e-05
2.68e-05
2.72e-05
2.76e-05
2.79e-05
2.83e-05
2.87e-05
2.9e-05
2.94e-05
2.98e-05
3.02e-05
3.06e-05
3.1e-05
3.14e-05
3.18e-05
3.22e-05
3.26e-05
3.3e-05
3.35e-05
3.39e-05
3.43e-05
3.47e-05
3.52e-05
3.57e-05
3.61e-05
3.66e-05
3.7e-05
3.75e-05
3.8e-05
3.85e-05
3.89e-05
3.95e-05
3.99e-05
4.05e-05
4.09e-05
4.15e-05
4.2e-05
4.25e-05
4.3e-05
4.36e-05
4.41e-05
4.47e-05
4.53e-05
4.57e-05
4.64e-05
4.7e-05
4.75e-05
4.81e-05
4.87e-05
4.93e-05
4.99e-05
5.05e-05
5.11e-05
5.18e-05
5.24e-05
5.3e-05
5.37e-05
5.44e-05
5.5e-05
5.56e-05
5.64e-05
5.7e-05
5.77e-05
5.84e-05
5.91e-05
5.98e-05
6.06e-05
6.12e-05
6.21e-05
6.27e-05
6.35e-05
6.42e-05
6.51e-05
6.57e-05
6.66e-05
6.74e-05
6.81e-05
6.9e-05
6.98e-05
7.06e-05
7.14e-05
7.23e-05
7.31e-05
7.4e-05
7.48e-05
7.57e-05
7.66e-05
7.75e-05
7.84e-05
7.93e-05
8.02e-05
8.11e-05
8.21e-05
8.3e-05
8.4e-05
8.5e-05
8.59e-05
8.69e-05
8.79e-05
8.89e-05
8.99e-05
9.1e-05
9.2e-05
9.3e-05
9.41e-05
9.51e-05
9.62e-05
9.73e-05
9.84e-05
9.95e-05
0.0001007
0.0001017
0.0001029
0.0001041
0.0001052
0.0001063
0.0001076
0.0001087
0.00011
0.0001112
0.0001124
0.0001136
0.0001149
0.0001162
0.0001174
0.0001187
0.00012
0.0001214
0.0001226
0.000124
0.0001254
0.0001267
0.000128
0.0001295
0.0001308
0.0001323
0.0001337
0.0001351
0.0001366
0.000138
0.0001395
0.000141
0.0001425
0.000144
0.0001456
0.0001471
0.0001486
0.0001502
0.0001518
0.0001534
0.000155
0.0001567
0.0001582
0.0001599
0.0001616
0.0001633
0.000165
0.0001667
0.0001684
0.0001702
0.0001719
0.0001737
0.0001754
0.0001773
0.0001791
0.000181
0.0001827
0.0001847
0.0001865
0.0001884
0.0001903
0.0001923
0.0001942
0.0001961
0.0001982
0.0002001
0.0002021
0.0002042
0.0002062
0.0002083
0.0002103
0.0002124
0.0002145
0.0002167
0.0002188
0.000221
0.0002231
0.0002253
0.0002276
0.0002297
0.0002321
0.0002342
0.0002366
0.0002389
0.0002412
0.0002435
0.0002458
0.0002483
0.0002506
0.0002531
0.0002555
0.0002579
0.0002604
0.0002628
0.0002654
0.0002679
0.0002704
0.000273
0.0002756
0.0002782
0.0002808
0.0002834
0.0002861
0.0002888
0.0002914
0.0002942
0.0002969
0.0002997
0.0003024
0.0003053
0.000308
0.0003109
0.0003137
0.0003167
0.0003195
0.0003224
0.0003254
0.0003283
0.0003314
0.0003343
0.0003373
0.0003404
0.0003435
0.0003465
0.0003496
0.0003528
0.0003559
0.0003591
0.0003623
0.0003655
0.0003688
0.000372
0.0003752
0.0003786
0.0003819
0.0003852
0.0003887
0.000392
0.0003954
0.0003988
0.0004023
0.0004058
0.0004093
0.0004128
0.0004164
0.0004199
0.0004235
0.0004272
0.0004307
0.0004345
0.0004381
0.0004418
0.0004456
0.0004493
0.0004531
0.0004569
0.0004607
0.0004645
0.0004684
0.0004724
0.0004762
0.0004802
0.0004841
0.0004881
0.0004921
0.0004962
0.0005002
0.0005043
0.0005084
0.0005126
0.0005167
0.0005208
0.0005251
0.0005293
0.0005335
0.0005378
0.0005421
0.0005464
0.0005508
0.0005551
0.0005596
0.0005639
0.0005684
0.0005728
0.0005774
0.0005818
0.0005864
0.000591
0.0005955
0.0006001
0.0006048
0.0006094
0.0006141
0.0006189
0.0006235
0.0006283
0.0006331
0.0006379
0.0006427
0.0006476
0.0006524
0.0006573
0.0006623
0.0006672
0.0006722
0.0006771
0.0006822
0.0006873
0.0006923
0.0006974
0.0007025
0.0007076
0.0007129
0.000718
0.0007232
0.0007284
0.0007337
0.000739
0.0007443
0.0007496
0.000755
0.0007604
0.0007657
0.0007712
0.0007766
0.0007821
0.0007876
0.0007931
0.0007986
0.0008043
0.0008097
0.0008154
0.0008211
0.0008267
0.0008323
0.0008381
0.0008438
0.0008495
0.0008553
0.0008611
0.0008669
0.0008727
0.0008786
0.0008845
0.0008903
0.0008963
0.0009023
0.0009082
0.0009141
0.0009202
0.0009262
0.0009323
0.0009383
0.0009445
0.0009505
0.0009567
0.0009628
0.000969
0.0009752
0.0009814
0.0009877
0.0009939
0.0010001
0.0010065
0.0010128
0.0010191
0.0010254
0.0010319
0.0010382
0.0010446
0.001051
0.0010575
0.001064
0.0010704
0.001077
0.0010834
0.00109
0.0010965
0.0011032
0.0011096
0.0011163
0.0011229
0.0011296
0.0011362
0.0011429
0.0011495
0.0011563
0.0011629
0.0011697
0.0011764
0.0011832
0.00119
0.0011968
0.0012035
0.0012104
0.0012172
0.0012241
0.0012309
0.0012377
0.0012447
0.0012516
0.0012584
0.0012654
0.0012723
0.0012793
0.0012862
0.0012932
0.0013001
0.0013072
0.0013141
0.0013212
0.0013281
0.0013352
0.0013423
0.0013492
0.0013564
0.0013634
0.0013704
0.0013776
0.0013846
0.0013917
0.0013989
0.0014059
0.001413
0.0014202
0.0014273
0.0014344
0.0014416
0.0014487
0.0014559
0.001463
0.0014701
0.0014774
0.0014845
0.0014916
0.0014988
0.001506
0.0015132
0.0015203
0.0015275
0.0015347
0.0015419
0.001549
0.0015562
0.0015634
0.0015706
0.0015778
0.0015849
0.0015921
0.0015993
0.0016064
0.0016136
0.0016208
0.0016279
0.0016351
0.0016422
0.0016494
0.0016565
0.0016637
0.0016707
0.001678
0.001685
0.0016921
0.0016993
0.0017063
0.0017134
0.0017205
0.0017276
0.0017346
0.0017417
0.0017487
0.0017558
0.0017627
0.0017698
0.0017768
0.0017837
0.0017908
0.0017977
0.0018046
0.0018115
0.0018185
0.0018254
0.0018323
0.0018391
0.001846
0.0018528
0.0018597
0.0018664
0.0018733
0.00188
0.0018868
0.0018934
0.0019002
0.0019069
0.0019136
0.0019202
0.0019269
0.0019334
0.0019401
0.0019465
0.0019532
0.0019596
0.0019662
0.0019726
0.001979
0.0019855
0.0019919
0.0019982
0.0020046
0.0020108
0.0020172
0.0020234
0.0020296
0.0020359
0.002042
0.0020481
0.0020542
0.0020604
0.0020663
0.0020724
0.0020784
0.0020843
0.0020902
0.0020961
0.0021019
0.0021078
0.0021135
0.0021192
0.002125
0.0021306
0.0021363
0.0021419
0.0021474
0.0021529
0.0021584
0.0021638
0.0021692
0.0021746
0.0021799
0.0021852
0.0021904
0.0021956
0.0022007
0.0022059
0.0022108
0.002216
0.0022208
0.0022258
0.0022307
0.0022355
0.0022403
0.002245
0.0022498
0.0022543
0.002259
0.0022635
0.002268
0.0022724
0.0022768
0.0022812
0.0022854
0.0022897
0.0022939
0.002298
0.0023021
0.0023062
0.0023101
0.002314
0.0023178
0.0023217
0.0023254
0.0023292
0.0023327
0.0023364
0.0023398
0.0023433
0.0023468
0.00235
0.0023534
0.0023565
0.0023598
0.0023628
0.0023659
0.0023689
0.0023717
0.0023747
0.0023774
0.0023801
0.0023828
0.0023854
0.002388
0.0023904
0.0023928
0.0023951
0.0023974
0.0023997
0.0024017
0.0024038
0.0024058
0.0024078
0.0024096
0.0024114
0.0024131
0.0024147
0.0024164
0.0024178
0.0024193
0.0024207
0.0024219
0.0024232
0.0024243
0.0024254
0.0024264
0.0024273
0.0024282
0.0024289
0.0024297
0.0024303
0.0024308
0.0024313
0.0024318
0.002432
0.0024323
0.0024324
0.0024326
0.0024325
0.0024325
0
0.0024323
0.0024322
0.0024318
0.0024314
0.002431
0.0024304
0.0024298
0.0024291
0.0024283
0.0024275
0.0024265
0.0024255
0.0024243
0.0024232
0.0024219
0.0024205
0.0024191
0.0024176
0.0024159
0.0024143
0.0024125
0.0024106
0.0024087
0.0024067
0.0024045
0.0024023
0.0024001
0.0023977
0.0023952
0.0023927
0.00239
0.0023874
0.0023845
0.0023816
0.0023787
0.0023756
0.0023725
0.0023692
0.0023659
0.0023625
0.002359
0.0023554
0.0023517
0.002348
0.0023442
0.0023401
0.0023362
0.0023321
0.0023278
0.0023236
0.0023191
0.0023147
0.0023102
0.0023055
0.0023008
0.0022959
0.0022911
0.002286
0.002281
0.0022757
0.0022705
0.0022652
0.0022597
0.0022541
0.0022486
0.0022428
0.002237
0.0022312
0.0022251
0.0022191
0.0022129
0.0022067
0.0022004
0.0021939
0.0021874
0.0021808
0.0021741
0.0021673
0.0021605
0.0021535
0.0021465
0.0021394
0.0021321
0.0021248
0.0021174
0.00211
0.0021023
0.0020947
0.002087
0.0020791
0.0020713
0.0020632
0.0020551
0.0020469
0.0020387
0.0020303
0.0020219
0.0020134
0.0020047
0.0019961
0.0019873
0.0019784
0.0019695
0.0019605
0.0019513
0.0019421
0.0019329
0.0019235
0.001914
0.0019045
0.0018949
0.0018852
0.0018754
0.0018656
0.0018556
0.0018456
0.0018355
0.0018253
0.001815
0.0018047
0.0017943
0.0017837
0.0017732
0.0017625
0.0017518
0.001741
0.0017301
0.0017191
0.0017081
0.0016969
0.0016858
0.0016745
0.0016631
0.0016517
0.0016402
0.0016286
0.001617
0.0016053
0.0015935
0.0015816
0.0015697
0.0015577
0.0015456
0.0015335
0.0015212
0.001509
0.0014966
0.0014842
0.0014717
0.0014592
0.0014465
0.0014339
0.001421
0.0014083
0.0013954
0.0013824
0.0013694
0.0013564
0.0013432
0.00133
0.0013168
0.0013034
0.00129
0.0012766
0.0012631
0.0012495
0.001236
0.0012222
0.0012085
0.0011947
0.0011809
0.001167
0.001153
0.001139
0.0011249
0.0011108
0.0010967
0.0010824
0.0010682
0.0010539
0.0010394
0.0010251
0.0010106
0.0009961
0.0009815
0.0009669
0.0009522
0.0009376
0.0009228
0.000908
0.0008932
0.0008783
0.0008635
0.0008484
0.0008335
0.0008184
0.0008033
0.0007883
0.0007731
0.0007579
0.0007427
0.0007274
0.0007121
0.0006968
0.0006815
0.000666
0.0006506
0.0006352
0.0006197
0.0006042
0.0005886
0.000573
0.0005575
0.0005418
0.0005262
0.0005105
0.0004948
0.0004791
0.0004633
0.0004475
0.0004318
0.0004159
0.0004001
0.0003843
0.0003684
0.0003525
0.0003366
0.0003206
0.0003048
0.0002887
0.0002728
0.0002569
0.0002408
0.0002248
0.0002089
0.0001928
0.0001767
0.0001607
0.0001447
0.0001286
0.0001126
9.65e-05
8.04e-05
6.43e-05
4.82e-05
3.22e-05
1.61e-05
0
-1.61e-05
-3.22e-05
-4.82e-05
-6.43e-05
-8.04e-05
-9.65e-05
-0.0001126
-0.0001286
-0.0001447
-0.0001607
-0.0001767
-0.0001928
-0.0002089
-0.0002248
-0.0002408
-0.0002569
-0.0002728
-0.0002887
-0.0003048
-0.0003206
-0.0003366
-0.0003525
-0.0003684
-0.0003843
-0.0004001
-0.0004159
-0.0004318
-0.0004475
-0.0004633
-0.0004791
-0.0004948
-0.0005105
-0.0005262
-0.0005418
-0.0005575
-0.000573
-0.0005886
-0.0006042
-0.0006197
-0.0006352
-0.0006506
-0.000666
-0.0006815
-0.0006968
-0.0007121
-0.0007274
-0.0007427
-0.0007579
-0.0007731
-0.0007883
-0.0008033
-0.0008184
-0.0008335
-0.0008484
-0.0008635
-0.0008783
-0.0008932
-0.000908
-0.0009228
-0.0009376
-0.0009522
-0.0009669
-0.0009815
-0.0009961
-0.0010106
-0.0010251
-0.0010394
-0.0010539
-0.0010682
-0.0010824
-0.0010967
-0.0011108
-0.0011249
-0.001139
-0.001153
-0.001167
-0.0011809
-0.0011947
-0.0012085
-0.0012222
-0.001236
-0.0012495
-0.0012631
-0.0012766
-0.00129
-0.0013034
-0.0013168
-0.00133
-0.0013432
-0.0013564
-0.0013694
-0.0013824
-0.0013954
-0.0014083
-0.001421
-0.0014339
-0.0014465
-0.0014592
-0.0014717
-0.0014842
-0.0014966
-0.001509
-0.0015212
-0.0015335
-0.0015456
-0.0015577
-0.0015697
-0.0015816
-0.0015935
-0.0016053
-0.001617
-0.0016286
-0.0016402
-0.0016517
-0.0016631
-0.0016745
-0.0016858
-0.0016969
-0.0017081
-0.0017191
-0.0017301
-0.001741
-0.0017518
-0.0017625
-0.0017732
-0.0017837
-0.0017943
-0.0018047
-0.001815
-0.0018253
-0.0018355
-0.0018456
-0.0018556
-0.0018656
-0.0018754
-0.0018852
-0.0018949
-0.0019045
-0.001914
-0.0019235
-0.0019329
-0.0019421
-0.0019513
-0.0019605
-0.0019695
-0.0019784
-0.0019873
-0.0019961
-0.0020047
-0.0020134
-0.0020219
-0.0020303
-0.0020387
-0.0020469
-0.0020551
-0.0020632
-0.0020713
-0.0020791
-0.002087
-0.0020947
-0.0021023
-0.00211
-0.0021174
-0.0021248
-0.0021321
-0.0021394
-0.0021465
-0.0021535
-0.0021605
-0.0021673
-0.0021741
-0.0021808
-0.0021874
-0.0021939
-0.0022004
-0.0022067
-0.0022129
-0.0022191
-0.0022251
-0.0022312
-0.002237
-0.0022428
-0.0022486
-0.0022541
-0.0022597
-0.0022652
-0.0022705
-0.0022757
-0.002281
-0.002286
-0.0022911
-0.0022959
-0.0023008
-0.0023055
-0.0023102
-0.0023147
-0.0023191
-0.0023236
-0.0023278
-0.0023321
-0.0023362
-0.0023401
-0.0023442
-0.002348
-0.0023517
-0.0023554
-0.002359
-0.0023625
-0.0023659
-0.0023692
-0.0023725
-0.0023756
-0.0023787
-0.0023816
-0.0023845
-0.0023874
-0.00239
-0.0023927
-0.0023952
-0.0023977
-0.0024001
-0.0024023
-0.0024045
-0.0024067
-0.0024087
-0.0024106
-0.0024125
-0.0024143
-0.0024159
-0.0024176
-0.0024191
-0.0024205
-0.0024219
-0.0024232
-0.0024243
-0.0024255
-0.0024265
-0.0024275
-0.0024283
-0.0024291
-0.0024298
-0.0024304
-0.002431
-0.0024314
-0.0024318
-0.0024322
-0.0024323
-0.0024325
-0.0024325
0
-0.0024326
-0.0024324
-0.0024323
-0.002432
-0.0024318
-0.0024313
-0.0024308
-0.0024303
-0.0024297
-0.0024289
-0.0024282
-0.0024273
-0.0024264
-0.0024254
-0.0024243
-0.0024232
-0.0024219
-0.0024207
-0.0024193
-0.0024178
-0.0024164
-0.0024147
-0.0024131
-0.0024114
-0.0024096
-0.0024078
-0.0024058
-0.0024038
-0.0024017
-0.0023997
-0.0023974
-0.0023951
-0.0023928
-0.0023904
-0.002388
-0.0023854
-0.0023828
-0.0023801
-0.0023774
-0.0023747
-0.0023717
-0.0023689
-0.0023659
-0.0023628
-0.0023598
-0.0023565
-0.0023534
-0.00235
-0.0023468
-0.0023433
-0.0023398
-0.0023364
-0.0023327
-0.0023292
-0.0023254
-0.0023217
-0.0023178
-0.002314
-0.0023101
-0.0023062
-0.0023021
-0.002298
-0.0022939
-0.0022897
-0.0022854
-0.0022812
-0.0022768
-0.0022724
-0.002268
-0.0022635
-0.002259
-0.0022543
-0.0022498
-0.002245
-0.0022403
-0.0022355
-0.0022307
-0.0022258
-0.0022208
-0.002216
-0.0022108
-0.0022059
-0.0022007
-0.0021956
-0.0021904
-0.0021852
-0.0021799
-0.0021746
-0.0021692
-0.0021638
-0.0021584
-0.0021529
-0.0021474
-0.0021419
-0.0021363
-0.0021306
-0.002125
-0.0021192
-0.0021135
-0.0021078
-0.0021019
-0.0020961
-0.0020902
-0.0020843
-0.0020784
-0.0020724
-0.0020663
-0.0020604
-0.0020542
-0.0020481
-0.002042
-0.0020359
-0.0020296
-0.0020234
-0.0020172
-0.0020108
-0.0020046
-0.0019982
-0.0019919
-0.0019855
-0.001979
-0.0019726
-0.0019662
-0.0019596
-0.0019532
-0.0019465
-0.0019401
-0.0019334
-0.0019269
-0.0019202
-0.0019136
-0.0019069
-0.0019002
-0.0018934
-0.0018868
-0.00188
-0.0018733
-0.0018664
-0.0018597
-0.0018528
-0.001846
-0.0018391
-0.0018323
-0.0018254
-0.0018185
-0.0018115
-0.0018046
-0.0017977
-0.0017908
-0.0017837
-0.0017768
-0.0017698
-0.0017627
-0.0017558
-0.0017487
-0.0017417
-0.0017346
-0.0017276
-0.0017205
-0.0017134
-0.0017063
-0.0016993
-0.0016921
-0.001685
-0.001678
-0.0016707
-0.0016637
-0.0016565
-0.0016494
-0.0016422
-0.0016351
-0.0016279
-0.0016208
-0.0016136
-0.0016064
-0.0015993
-0.0015921
-0.0015849
-0.0015778
-0.0015706
-0.0015634
-0.0015562
-0.001549
-0.0015419
-0.0015347
-0.0015275
-0.0015203
-0.0015132
-0.001506
-0.0014988
-0.0014916
-0.0014845
-0.0014774
-0.0014701
-0.001463
-0.0014559
-0.0014487
-0.0014416
-0.0014344
-0.0014273
-0.0014202
-0.001413
-0.0014059
-0.0013989
-0.0013917
-0.0013846
-0.0013776
-0.0013704
-0.0013634
-0.0013564
-0.0013492
-0.0013423
-0.0013352
-0.0013281
-0.0013212
-0.0013141
-0.0013072
-0.0013001
-0.0012932
-0.0012862
-0.0012793
-0.0012723
-0.0012654
-0.0012584
-0.0012516
-0.0012447
-0.0012377
-0.0012309
-0.0012241
-0.0012172
-0.0012104
-0.0012035
-0.0011968
-0.00119
-0.0011832
-0.0011764
-0.0011697
-0.0011629
-0.0011563
-0.0011495
-0.0011429
-0.0011362
-0.0011296
-0.0011229
-0.0011163
-0.0011096
-0.0011032
-0.0010965
-0.00109
-0.0010834
-0.001077
-0.0010704
-0.001064
-0.0010575
-0.001051
-0.0010446
-0.0010382
-0.0010319
-0.0010254
-0.0010191
-0.0010128
-0.0010065
-0.0010001
-0.0009939
-0.0009877
-0.0009814
-0.0009752
-0.000969
-0.0009628
-0.0009567
-0.0009505
-0.0009445
-0.0009383
-0.0009323
-0.0009262
-0.0009202
-0.0009141
-0.0009082
-0.0009023
-0.0008963
-0.0008903
-0.0008845
-0.0008786
-0.0008727
-0.0008669
-0.0008611
-0.0008553
-0.0008495
-0.0008438
-0.0008381
-0.0008323
-0.0008267
-0.0008211
-0.0008154
-0.0008097
-0.0008043
-0.0007986
-0.0007931
-0.0007876
-0.0007821
-0.0007766
-0.0007712
-0.0007657
-0.0007604
-0.000755
-0.0007496
-0.0007443
-0.000739
-0.0007337
-0.0007284
-0.0007232
-0.000718
-0.0007129
-0.0007076
-0.0007025
-0.0006974
-0.0006923
-0.0006873
-0.0006822
-0.0006771
-0.0006722
-0.0006672
-0.0006623
-0.0006573
-0.0006524
-0.0006476
-0.0006427
-0.0006379
-0.0006331
-0.0006283
-0.0006235
-0.0006189
-0.0006141
-0.0006094
-0.0006048
-0.0006001
-0.0005955
-0.000591
-0.0005864
-0.0005818
-0.0005774
-0.0005728
-0.0005684
-0.0005639
-0.0005596
-0.0005551
-0.0005508
-0.0005464
-0.0005421
-0.0005378
-0.0005335
-0.0005293
-0.0005251
-0.0005208
-0.0005167
-0.0005126
-0.0005084
-0.0005043
-0.0005002
-0.0004962
-0.0004921
-0.0004881
-0.0004841
-0.0004802
-0.0004762
-0.0004724
-0.0004684
-0.0004645
-0.0004607
-0.0004569
-0.0004531
-0.0004493
-0.0004456
-0.0004418
-0.0004381
-0.0004345
-0.0004307
-0.0004272
-0.0004235
-0.0004199
-0.0004164
-0.0004128
-0.0004093
-0.0004058
-0.0004023
-0.0003988
-0.0003954
-0.000392
-0.0003887
-0.0003852
-0.0003819
-0.0003786
-0.0003752
-0.000372
-0.0003688
-0.0003655
-0.0003623
-0.0003591
-0.0003559
-0.0003528
-0.0003496
-0.0003465
-0.0003435
-0.0003404
-0.0003373
-0.0003343
-0.0003314
-0.0003283
-0.0003254
-0.0003224
-0.0003195
-0.0003167
-0.0003137
-0.0003109
-0.000308
-0.0003053
-0.0003024
-0.0002997
-0.0002969
-0.0002942
-0.0002914
-0.0002888
-0.0002861
-0.0002834
-0.0002808
-0.0002782
-0.0002756
-0.000273
-0.0002704
-0.0002679
-0.0002654
-0.0002628
-0.0002604
-0.0002579
-0.0002555
-0.0002531
-0.0002506
-0.0002483
-0.0002458
-0.0002435
-0.0002412
-0.0002389
-0.0002366
-0.0002342
-0.0002321
-0.0002297
-0.0002276
-0.0002253
-0.0002231
-0.000221
-0.0002188
-0.0002167
-0.0002145
-0.0002124
-0.0002103
-0.0002083
-0.0002062
-0.0002042
-0.0002021
-0.0002001
-0.0001982
-0.0001961
-0.0001942
-0.0001923
-0.0001903
-0.0001884
-0.0001865
-0.0001847
-0.0001827
-0.000181
-0.0001791
-0.0001773
-0.0001754
-0.0001737
-0.0001719
-0.0001702
-0.0001684
-0.0001667
-0.000165
-0.0001633
-0.0001616
-0.0001599
-0.0001582
-0.0001567
-0.000155
-0.0001534
-0.0001518
-0.0001502
-0.0001486
-0.0001471
-0.0001456
-0.000144
-0.0001425
-0.000141
-0.0001395
-0.000138
-0.0001366
-0.0001351
-0.0001337
-0.0001323
-0.0001308
-0.0001295
-0.000128
-0.0001267
-0.0001254
-0.000124
-0.0001226
-0.0001214
-0.00012
-0.0001187
-0.0001174
-0.0001162
-0.0001149
-0.0001136
-0.0001124
-0.0001112
-0.00011
-0.0001087
-0.0001076
-0.0001063
-0.0001052
-0.0001041
-0.0001029
-0.0001017
-0.0001007
-9.95e-05
-9.84e-05
-9.73e-05
-9.62e-05
-9.51e-05
-9.41e-05
-9.3e-05
-9.2e-05
-9.1e-05
-8.99e-05
-8.89e-05
-8.79e-05
-8.69e-05
-8.59e-05
-8.5e-05
-8.4e-05
-8.3e-05
-8.21e-05
-8.11e-05
-8.02e-05
-7.93e-05
-7.84e-05
-7.75e-05
-7.66e-05
-7.57e-05
-7.48e-05
-7.4e-05
-7.31e-05
-7.23e-05
-7.14e-05
-7.06e-05
-6.98e-05
-6.9e-05
-6.81e-05
-6.74e-05
-6.66e-05
-6.57e-05
-6.51e-05
-6.42e-05
-6.35e-05
-6.27e-05
-6.21e-05
-6.12e-05
-6.06e-05
-5.98e-05
-5.91e-05
-5.84e-05
-5.77e-05
-5.7e-05
-5.64e-05
-5.56e-05
-5.5e-05
-5.44e-05
-5.37e-05
-5.3e-05
-5.24e-05
-5.18e-05
-5.11e-05
-5.05e-05
-4.99e-05
-4.93e-05
-4.87e-05
-4.81e-05
-4.75e-05
-4.7e-05
-4.64e-05
-4.57e-05
-4.53e-05
-4.47e-05
-4.41e-05
-4.36e-05
-4.3e-05
-4.25e-05
-4.2e-05
-4.15e-05
-4.09e-05
-4.05e-05
-3.99e-05
-3.95e-05
-3.89e-05
-3.85e-05
-3.8e-05
-3.75e-05
-3.7e-05
-3.66e-05
-3.61e-05
-3.57e-05
-3.52e-05
-3.47e-05
-3.43e-05
-3.39e-05
-3.35e-05
-3.3e-05
-3.26e-05
-3.22e-05
-3.18e-05
-3.14e-05
-3.1e-05
-3.06e-05
-3.02e-05
-2.98e-05
-2.94e-05
-2.9e-05
-2.87e-05
-2.83e-05
-2.79e-05
-2.76e-05
-2.72e-05
-2.68e-05
-2.66e-05
-2.61e-05
-2.58e-05
-2.55e-05
-2.52e-05
-2.48e-05
-2.45e-05
-2.42e-05
-2.39e-05
-2.35e-05
-2.32e-05
-2.3e-05
-2.26e-05
-2.23e-05
-2.21e-05
-2.17e-05
-2.15e-05
-2.11e-05
-2.09e-05
-2.06e-05
-2.04e-05
-2e-05
-1.98e-05
-1.95e-05
-1.93e-05
-1.9e-05
-1.88e-05
-1.85e-05
-1.82e-05
-1.8e-05
-1.78e-05
-1.75e-05
-1.73e-05
-1.7e-05
-1.69e-05
-1.66e-05
-1.63e-05
-1.62e-05
-1.59e-05
-1.57e-05
-1.55e-05
-1.52e-05
-1.51e-05
-1.49e-05
-1.46e-05
-1.45e-05
-1.42e-05
-1.41e-05
-1.39e-05
-1.36e-05
-1.35e-05
-1.33e-05
-1.31e-05
-1.3e-05
-1.27e-05
-1.26e-05
-1.24e-05
-1.22e-05
-1.21e-05
-1.18e-05
-1.18e-05
0
-1.15e-05
-1.14e-05
-1.12e-05
-1.11e-05
-1.09e-05
-1.08e-05
-1.06e-05
-1.05e-05
-1.03e-05
-1.01e-05
-1e-05
-9.9e-06
-9.8e-06
-9.6e-06
-9.4e-06
-9.4e-06
0
-9.1e-06
-9.1e-06
0
-8.9e-06
-8.8e-06
-8.7e-06
-8.6e-06
-8.4e-06
-8.3e-06
-8.2e-06
-8.1e-06
-7.9e-06
-7.9e-06
0
-7.7e-06
-7.6e-06
-7.5e-06
-7.4e-06
-7.3e-06
-7.1e-06
-7.1e-06
0
-7e-06
-6.8e-06
-6.8e-06
0
-6.7e-06
-6.5e-06
-6.5e-06
0
-6.4e-06
-6.3e-06
-6.2e-06
-6.1e-06
-6e-06
-5.9e-06
-5.8e-06
-5.8e-06
0
-5.6e-06
-5.6e-06
0
-5.5e-06
-5.4e-06
-5.3e-06
-5.3e-06
0
-5.2e-06
-5.1e-06
-5e-06
-4.9e-06
-4.9e-06
0
-4.8e-06
-4.7e-06
-4.7e-06
0
-4.5e-06
-4.5e-06
1
-4.4e-06
-4.3e-06
-4.2e-06
-4.2e-06
0
-4.1e-06
-4.1e-06
0
-4e-06
-3.9e-06
-3.9e-06
0
-3.8e-06
-3.7e-06
-3.7e-06
1
-3.5e-06
-3.6e-06
-3.5e-06
-3.4e-06
-3.3e-06
-3.4e-06
-3.2e-06
-3.2e-06
1
-3.1e-06
-3.1e-06
0
-3e-06
-3e-06
0
-2.9e-06
-2.9e-06
0
-2.8e-06
-2.8e-06
0
-2.7e-06
-2.7e-06
1
-2.6e-06
-2.6e-06
0
-2.5e-06
-2.5e-06
1
-2.4e-06
-2.4e-06
0
-2.3e-06
-2.3e-06
2
-2.1e-06
-2.2e-06
-2.1e-06
-2.1e-06
1
-2e-06
-2e-06
1
-1.9e-06
-1.9e-06
1
-1.8e-06
-1.8e-06
2
-1.7e-06
-1.7e-06
1
-1.6e-06
-1.6e-06
2
-1.5e-06
-1.5e-06
2
-1.4e-06
-1.5e-06
-1.4e-06
-1.3e-06
-1.4e-06
-1.3e-06
-1.3e-06
1
-1.2e-06
-1.3e-06
-1.2e-06
-1.2e-06
2
-1.1e-06
-1.1e-06
3
-1e-06
-1.1e-06
-1e-06
-1e-06
1
-9e-07
-1e-06
-9e-07
-9e-07
4
-8e-07
-8e-07
5
-7e-07
-8e-07
-7e-07
-7e-07
2
-6e-07
-7e-07
-7e-07
0
-6e-07
-6e-07
0
-7e-07
-6e-07
-6e-07
1
-5e-07
-6e-07
-6e-07
0
-5e-07
-5e-07
0
-6e-07
-5e-07
-5e-07
4
-4e-07
-5e-07
-4e-07
-5e-07
-4e-07
-5e-07
-4e-07
-4e-07
5
-3e-07
-4e-07
-4e-07
0
-3e-07
-4e-07
-3e-07
-3e-07
0
-4e-07
-3e-07
-3e-07
7
-2e-07
-3e-07
-3e-07
0
-2e-07
-3e-07
-2e-07
-3e-07
-2e-07
-3e-07
-2e-07
-2e-07
0
-3e-07
-2e-07
-2e-07
9
-1e-07
-2e-07
-2e-07
1
-1e-07
-2e-07
-2e-07
0
-1e-07
-2e-07
-1e-07
-2e-07
-1e-07
-2e-07
-1e-07
-2e-07
-1e-07
-1e-07
0
-2e-07
-1e-07
-1e-07
1
-2e-07
-1e-07
-1e-07
5
-2e-07
-1e-07
-1e-07
2
0
-1e-07
-1e-07
5
0
-1e-07
-1e-07
2
0
-1e-07
-1e-07
0

shape_id 2
num_samples 2500
0
0
2498

shape_id 3
num_samples 50000
0
0.001
0.001
998
0
0
47998
-0.001001
-0.001001
47
-0.0010011
-0.001001
-0.001001
97
-0.0010011
-0.001001
-0.001001
97
-0.0010011
-0.001001
-0.001001
97
-0.0010011
-0.001001
-0.001001
97
-0.0010011
-0.001001
-0.001001
97
-0.0010011
-0.001001
-0.001001
97
-0.0010011
-0.001001
-0.001001
97
-0.0010011
-0.001001
-0.001001
97
-0.0010011
-0.001001
-0.001001
97
-0.0010011
-0.001001
-0.001001
47

shape_id 4
num_samples 50000
0.05
0.1
0.1
49997

shape_id 5
num_samples 100000
0
0.001
0.001
998
0
0
97998
-0.001001
-0.001001
47
-0.0010011
-0.001001
-0.001001
97
-0.0010011
-0.001001
-0.001001
97
-0.0010011
-0.001001
-0.001001
97
-0.0010011
-0.001001
-0.001001
97
-0.0010011
-0.001001
-0.001001
97
-0.0010011
-0.001001
-0.001001
97
-0.0010011
-0.001001
-0.001001
97
-0.0010011
-0.001001
-0.001001
97
-0.0010011
-0.001001
-0.001001
97
-0.0010011
-0.001001
-0.001001
47

shape_id 6
num_samples 100000
0.05
0.1
0.1
99997


[SIGNATURE]
# This is the hash of the Pulseq file, calculated right before the [SIGNATURE] section was added
# It can be reproduced/verified with md5sum if the file trimmed to the position right above [SIGNATURE]
# The new line character preceding [SIGNATURE] BELONGS to the signature (and needs to be stripped away for recalculating/verification)
Type md5
Hash f7c0f672585f42e2b0e54801a1a5a8cb
