# Pulseq sequence file
# Created by PyPulseq

# Created for Pulseq-CEST
# https://pulseq-cest.github.io/
# Created by: DANIEL MIKSCH
# Created at: 17-May-2026 01:24:12

[VERSION]
major 1
minor 4
revision 2

[DEFINITIONS]
AdcRasterTime 1e-07 
B0 17 
BlockDurationRaster 1e-05 
FREQ 723.7988 
GradientRasterTime 1e-05 
M0_offset 300 
RadiofrequencyRasterTime 1e-06 
TotalDuration 402.201 
n_ETM 1 
num_meas 201 
offsets_ppm 300 -10 -9.89949749 -9.79899497 -9.69849246 -9.59798995 -9.49748744 -9.39698492 -9.29648241 -9.1959799 -9.09547739 -8.99497487 -8.89447236 -8.79396985 -8.69346734 -8.59296482 -8.49246231 -8.3919598 -8.29145729 -8.19095477 -8.09045226 -7.98994975 -7.88944724 -7.78894472 -7.68844221 -7.5879397 -7.48743719 -7.38693467 -7.28643216 -7.18592965 -7.08542714 -6.98492462 -6.88442211 -6.7839196 -6.68341709 -6.58291457 -6.48241206 -6.38190955 -6.28140704 -6.18090452 -6.08040201 -5.9798995 -5.87939698 -5.77889447 -5.67839196 -5.57788945 -5.47738693 -5.37688442 -5.27638191 -5.1758794 -5.07537688 -4.97487437 -4.87437186 -4.77386935 -4.67336683 -4.57286432 -4.47236181 -4.3718593 -4.27135678 -4.17085427 -4.07035176 -3.96984925 -3.86934673 -3.76884422 -3.66834171 -3.5678392 -3.46733668 -3.36683417 -3.26633166 -3.16582915 -3.06532663 -2.96482412 -2.86432161 -2.7638191 -2.66331658 -2.56281407 -2.46231156 -2.36180905 -2.26130653 -2.16080402 -2.06030151 -1.95979899 -1.85929648 -1.75879397 -1.65829146 -1.55778894 -1.45728643 -1.35678392 -1.25628141 -1.15577889 -1.05527638 -0.954773869 -0.854271357 -0.753768844 -0.653266332 -0.552763819 -0.452261307 -0.351758794 -0.251256281 -0.150753769 -0.0502512563 0.0502512563 0.150753769 0.251256281 0.351758794 0.452261307 0.552763819 0.653266332 0.753768844 0.854271357 0.954773869 1.05527638 1.15577889 1.25628141 1.35678392 1.45728643 1.55778894 1.65829146 1.75879397 1.85929648 1.95979899 2.06030151 2.16080402 2.26130653 2.36180905 2.46231156 2.56281407 2.66331658 2.7638191 2.86432161 2.96482412 3.06532663 3.16582915 3.26633166 3.36683417 3.46733668 3.5678392 3.66834171 3.76884422 3.86934673 3.96984925 4.07035176 4.17085427 4.27135678 4.3718593 4.47236181 4.57286432 4.67336683 4.77386935 4.87437186 4.97487437 5.07537688 5.1758794 5.27638191 5.37688442 5.47738693 5.57788945 5.67839196 5.77889447 5.87939698 5.9798995 6.08040201 6.18090452 6.28140704 6.38190955 6.48241206 6.58291457 6.68341709 6.7839196 6.88442211 6.98492462 7.08542714 7.18592965 7.28643216 7.38693467 7.48743719 7.5879397 7.68844221 7.78894472 7.88944724 7.98994975 8.09045226 8.19095477 8.29145729 8.3919598 8.49246231 8.59296482 8.69346734 8.79396985 8.89447236 8.99497487 9.09547739 9.1959799 9.29648241 9.39698492 9.49748744 9.59798995 9.69849246 9.79899497 9.89949749 10 
seq_id_string zspec_block 

# Format of blocks:
# NUM DUR RF  GX  GY  GZ  ADC  EXT
[BLOCKS]
  1 200000   1   0   0   0  0  0
  2 100   0   0   0   0  1  0
  3 200000   2   0   0   0  0  0
  4 100   0   0   0   0  1  0
  5 200000   3   0   0   0  0  0
  6 100   0   0   0   0  1  0
  7 200000   4   0   0   0  0  0
  8 100   0   0   0   0  1  0
  9 200000   5   0   0   0  0  0
 10 100   0   0   0   0  1  0
 11 200000   6   0   0   0  0  0
 12 100   0   0   0   0  1  0
 13 200000   7   0   0   0  0  0
 14 100   0   0   0   0  1  0
 15 200000   8   0   0   0  0  0
 16 100   0   0   0   0  1  0
 17 200000   9   0   0   0  0  0
 18 100   0   0   0   0  1  0
 19 200000  10   0   0   0  0  0
 20 100   0   0   0   0  1  0
 21 200000  11   0   0   0  0  0
 22 100   0   0   0   0  1  0
 23 200000  12   0   0   0  0  0
 24 100   0   0   0   0  1  0
 25 200000  13   0   0   0  0  0
 26 100   0   0   0   0  1  0
 27 200000  14   0   0   0  0  0
 28 100   0   0   0   0  1  0
 29 200000  15   0   0   0  0  0
 30 100   0   0   0   0  1  0
 31 200000  16   0   0   0  0  0
 32 100   0   0   0   0  1  0
 33 200000  17   0   0   0  0  0
 34 100   0   0   0   0  1  0
 35 200000  18   0   0   0  0  0
 36 100   0   0   0   0  1  0
 37 200000  19   0   0   0  0  0
 38 100   0   0   0   0  1  0
 39 200000  20   0   0   0  0  0
 40 100   0   0   0   0  1  0
 41 200000  21   0   0   0  0  0
 42 100   0   0   0   0  1  0
 43 200000  22   0   0   0  0  0
 44 100   0   0   0   0  1  0
 45 200000  23   0   0   0  0  0
 46 100   0   0   0   0  1  0
 47 200000  24   0   0   0  0  0
 48 100   0   0   0   0  1  0
 49 200000  25   0   0   0  0  0
 50 100   0   0   0   0  1  0
 51 200000  26   0   0   0  0  0
 52 100   0   0   0   0  1  0
 53 200000  27   0   0   0  0  0
 54 100   0   0   0   0  1  0
 55 200000  28   0   0   0  0  0
 56 100   0   0   0   0  1  0
 57 200000  29   0   0   0  0  0
 58 100   0   0   0   0  1  0
 59 200000  30   0   0   0  0  0
 60 100   0   0   0   0  1  0
 61 200000  31   0   0   0  0  0
 62 100   0   0   0   0  1  0
 63 200000  32   0   0   0  0  0
 64 100   0   0   0   0  1  0
 65 200000  33   0   0   0  0  0
 66 100   0   0   0   0  1  0
 67 200000  34   0   0   0  0  0
 68 100   0   0   0   0  1  0
 69 200000  35   0   0   0  0  0
 70 100   0   0   0   0  1  0
 71 200000  36   0   0   0  0  0
 72 100   0   0   0   0  1  0
 73 200000  37   0   0   0  0  0
 74 100   0   0   0   0  1  0
 75 200000  38   0   0   0  0  0
 76 100   0   0   0   0  1  0
 77 200000  39   0   0   0  0  0
 78 100   0   0   0   0  1  0
 79 200000  40   0   0   0  0  0
 80 100   0   0   0   0  1  0
 81 200000  41   0   0   0  0  0
 82 100   0   0   0   0  1  0
 83 200000  42   0   0   0  0  0
 84 100   0   0   0   0  1  0
 85 200000  43   0   0   0  0  0
 86 100   0   0   0   0  1  0
 87 200000  44   0   0   0  0  0
 88 100   0   0   0   0  1  0
 89 200000  45   0   0   0  0  0
 90 100   0   0   0   0  1  0
 91 200000  46   0   0   0  0  0
 92 100   0   0   0   0  1  0
 93 200000  47   0   0   0  0  0
 94 100   0   0   0   0  1  0
 95 200000  48   0   0   0  0  0
 96 100   0   0   0   0  1  0
 97 200000  49   0   0   0  0  0
 98 100   0   0   0   0  1  0
 99 200000  50   0   0   0  0  0
100 100   0   0   0   0  1  0
101 200000  51   0   0   0  0  0
102 100   0   0   0   0  1  0
103 200000  52   0   0   0  0  0
104 100   0   0   0   0  1  0
105 200000  53   0   0   0  0  0
106 100   0   0   0   0  1  0
107 200000  54   0   0   0  0  0
108 100   0   0   0   0  1  0
109 200000  55   0   0   0  0  0
110 100   0   0   0   0  1  0
111 200000  56   0   0   0  0  0
112 100   0   0   0   0  1  0
113 200000  57   0   0   0  0  0
114 100   0   0   0   0  1  0
115 200000  58   0   0   0  0  0
116 100   0   0   0   0  1  0
117 200000  59   0   0   0  0  0
118 100   0   0   0   0  1  0
119 200000  60   0   0   0  0  0
120 100   0   0   0   0  1  0
121 200000  61   0   0   0  0  0
122 100   0   0   0   0  1  0
123 200000  62   0   0   0  0  0
124 100   0   0   0   0  1  0
125 200000  63   0   0   0  0  0
126 100   0   0   0   0  1  0
127 200000  64   0   0   0  0  0
128 100   0   0   0   0  1  0
129 200000  65   0   0   0  0  0
130 100   0   0   0   0  1  0
131 200000  66   0   0   0  0  0
132 100   0   0   0   0  1  0
133 200000  67   0   0   0  0  0
134 100   0   0   0   0  1  0
135 200000  68   0   0   0  0  0
136 100   0   0   0   0  1  0
137 200000  69   0   0   0  0  0
138 100   0   0   0   0  1  0
139 200000  70   0   0   0  0  0
140 100   0   0   0   0  1  0
141 200000  71   0   0   0  0  0
142 100   0   0   0   0  1  0
143 200000  72   0   0   0  0  0
144 100   0   0   0   0  1  0
145 200000  73   0   0   0  0  0
146 100   0   0   0   0  1  0
147 200000  74   0   0   0  0  0
148 100   0   0   0   0  1  0
149 200000  75   0   0   0  0  0
150 100   0   0   0   0  1  0
151 200000  76   0   0   0  0  0
152 100   0   0   0   0  1  0
153 200000  77   0   0   0  0  0
154 100   0   0   0   0  1  0
155 200000  78   0   0   0  0  0
156 100   0   0   0   0  1  0
157 200000  79   0   0   0  0  0
158 100   0   0   0   0  1  0
159 200000  80   0   0   0  0  0
160 100   0   0   0   0  1  0
161 200000  81   0   0   0  0  0
162 100   0   0   0   0  1  0
163 200000  82   0   0   0  0  0
164 100   0   0   0   0  1  0
165 200000  83   0   0   0  0  0
166 100   0   0   0   0  1  0
167 200000  84   0   0   0  0  0
168 100   0   0   0   0  1  0
169 200000  85   0   0   0  0  0
170 100   0   0   0   0  1  0
171 200000  86   0   0   0  0  0
172 100   0   0   0   0  1  0
173 200000  87   0   0   0  0  0
174 100   0   0   0   0  1  0
175 200000  88   0   0   0  0  0
176 100   0   0   0   0  1  0
177 200000  89   0   0   0  0  0
178 100   0   0   0   0  1  0
179 200000  90   0   0   0  0  0
180 100   0   0   0   0  1  0
181 200000  91   0   0   0  0  0
182 100   0   0   0   0  1  0
183 200000  92   0   0   0  0  0
184 100   0   0   0   0  1  0
185 200000  93   0   0   0  0  0
186 100   0   0   0   0  1  0
187 200000  94   0   0   0  0  0
188 100   0   0   0   0  1  0
189 200000  95   0   0   0  0  0
190 100   0   0   0   0  1  0
191 200000  96   0   0   0  0  0
192 100   0   0   0   0  1  0
193 200000  97   0   0   0  0  0
194 100   0   0   0   0  1  0
195 200000  98   0   0   0  0  0
196 100   0   0   0   0  1  0
197 200000  99   0   0   0  0  0
198 100   0   0   0   0  1  0
199 200000 100   0   0   0  0  0
200 100   0   0   0   0  1  0
201 200000 101   0   0   0  0  0
202 100   0   0   0   0  1  0
203 200000 102   0   0   0  0  0
204 100   0   0   0   0  1  0
205 200000 103   0   0   0  0  0
206 100   0   0   0   0  1  0
207 200000 104   0   0   0  0  0
208 100   0   0   0   0  1  0
209 200000 105   0   0   0  0  0
210 100   0   0   0   0  1  0
211 200000 106   0   0   0  0  0
212 100   0   0   0   0  1  0
213 200000 107   0   0   0  0  0
214 100   0   0   0   0  1  0
215 200000 108   0   0   0  0  0
216 100   0   0   0   0  1  0
217 200000 109   0   0   0  0  0
218 100   0   0   0   0  1  0
219 200000 110   0   0   0  0  0
220 100   0   0   0   0  1  0
221 200000 111   0   0   0  0  0
222 100   0   0   0   0  1  0
223 200000 112   0   0   0  0  0
224 100   0   0   0   0  1  0
225 200000 113   0   0   0  0  0
226 100   0   0   0   0  1  0
227 200000 114   0   0   0  0  0
228 100   0   0   0   0  1  0
229 200000 115   0   0   0  0  0
230 100   0   0   0   0  1  0
231 200000 116   0   0   0  0  0
232 100   0   0   0   0  1  0
233 200000 117   0   0   0  0  0
234 100   0   0   0   0  1  0
235 200000 118   0   0   0  0  0
236 100   0   0   0   0  1  0
237 200000 119   0   0   0  0  0
238 100   0   0   0   0  1  0
239 200000 120   0   0   0  0  0
240 100   0   0   0   0  1  0
241 200000 121   0   0   0  0  0
242 100   0   0   0   0  1  0
243 200000 122   0   0   0  0  0
244 100   0   0   0   0  1  0
245 200000 123   0   0   0  0  0
246 100   0   0   0   0  1  0
247 200000 124   0   0   0  0  0
248 100   0   0   0   0  1  0
249 200000 125   0   0   0  0  0
250 100   0   0   0   0  1  0
251 200000 126   0   0   0  0  0
252 100   0   0   0   0  1  0
253 200000 127   0   0   0  0  0
254 100   0   0   0   0  1  0
255 200000 128   0   0   0  0  0
256 100   0   0   0   0  1  0
257 200000 129   0   0   0  0  0
258 100   0   0   0   0  1  0
259 200000 130   0   0   0  0  0
260 100   0   0   0   0  1  0
261 200000 131   0   0   0  0  0
262 100   0   0   0   0  1  0
263 200000 132   0   0   0  0  0
264 100   0   0   0   0  1  0
265 200000 133   0   0   0  0  0
266 100   0   0   0   0  1  0
267 200000 134   0   0   0  0  0
268 100   0   0   0   0  1  0
269 200000 135   0   0   0  0  0
270 100   0   0   0   0  1  0
271 200000 136   0   0   0  0  0
272 100   0   0   0   0  1  0
273 200000 137   0   0   0  0  0
274 100   0   0   0   0  1  0
275 200000 138   0   0   0  0  0
276 100   0   0   0   0  1  0
277 200000 139   0   0   0  0  0
278 100   0   0   0   0  1  0
279 200000 140   0   0   0  0  0
280 100   0   0   0   0  1  0
281 200000 141   0   0   0  0  0
282 100   0   0   0   0  1  0
283 200000 142   0   0   0  0  0
284 100   0   0   0   0  1  0
285 200000 143   0   0   0  0  0
286 100   0   0   0   0  1  0
287 200000 144   0   0   0  0  0
288 100   0   0   0   0  1  0
289 200000 145   0   0   0  0  0
290 100   0   0   0   0  1  0
291 200000 146   0   0   0  0  0
292 100   0   0   0   0  1  0
293 200000 147   0   0   0  0  0
294 100   0   0   0   0  1  0
295 200000 148   0   0   0  0  0
296 100   0   0   0   0  1  0
297 200000 149   0   0   0  0  0
298 100   0   0   0   0  1  0
299 200000 150   0   0   0  0  0
300 100   0   0   0   0  1  0
301 200000 151   0   0   0  0  0
302 100   0   0   0   0  1  0
303 200000 152   0   0   0  0  0
304 100   0   0   0   0  1  0
305 200000 153   0   0   0  0  0
306 100   0   0   0   0  1  0
307 200000 154   0   0   0  0  0
308 100   0   0   0   0  1  0
309 200000 155   0   0   0  0  0
310 100   0   0   0   0  1  0
311 200000 156   0   0   0  0  0
312 100   0   0   0   0  1  0
313 200000 157   0   0   0  0  0
314 100   0   0   0   0  1  0
315 200000 158   0   0   0  0  0
316 100   0   0   0   0  1  0
317 200000 159   0   0   0  0  0
318 100   0   0   0   0  1  0
319 200000 160   0   0   0  0  0
320 100   0   0   0   0  1  0
321 200000 161   0   0   0  0  0
322 100   0   0   0   0  1  0
323 200000 162   0   0   0  0  0
324 100   0   0   0   0  1  0
325 200000 163   0   0   0  0  0
326 100   0   0   0   0  1  0
327 200000 164   0   0   0  0  0
328 100   0   0   0   0  1  0
329 200000 165   0   0   0  0  0
330 100   0   0   0   0  1  0
331 200000 166   0   0   0  0  0
332 100   0   0   0   0  1  0
333 200000 167   0   0   0  0  0
334 100   0   0   0   0  1  0
335 200000 168   0   0   0  0  0
336 100   0   0   0   0  1  0
337 200000 169   0   0   0  0  0
338 100   0   0   0   0  1  0
339 200000 170   0   0   0  0  0
340 100   0   0   0   0  1  0
341 200000 171   0   0   0  0  0
342 100   0   0   0   0  1  0
343 200000 172   0   0   0  0  0
344 100   0   0   0   0  1  0
345 200000 173   0   0   0  0  0
346 100   0   0   0   0  1  0
347 200000 174   0   0   0  0  0
348 100   0   0   0   0  1  0
349 200000 175   0   0   0  0  0
350 100   0   0   0   0  1  0
351 200000 176   0   0   0  0  0
352 100   0   0   0   0  1  0
353 200000 177   0   0   0  0  0
354 100   0   0   0   0  1  0
355 200000 178   0   0   0  0  0
356 100   0   0   0   0  1  0
357 200000 179   0   0   0  0  0
358 100   0   0   0   0  1  0
359 200000 180   0   0   0  0  0
360 100   0   0   0   0  1  0
361 200000 181   0   0   0  0  0
362 100   0   0   0   0  1  0
363 200000 182   0   0   0  0  0
364 100   0   0   0   0  1  0
365 200000 183   0   0   0  0  0
366 100   0   0   0   0  1  0
367 200000 184   0   0   0  0  0
368 100   0   0   0   0  1  0
369 200000 185   0   0   0  0  0
370 100   0   0   0   0  1  0
371 200000 186   0   0   0  0  0
372 100   0   0   0   0  1  0
373 200000 187   0   0   0  0  0
374 100   0   0   0   0  1  0
375 200000 188   0   0   0  0  0
376 100   0   0   0   0  1  0
377 200000 189   0   0   0  0  0
378 100   0   0   0   0  1  0
379 200000 190   0   0   0  0  0
380 100   0   0   0   0  1  0
381 200000 191   0   0   0  0  0
382 100   0   0   0   0  1  0
383 200000 192   0   0   0  0  0
384 100   0   0   0   0  1  0
385 200000 193   0   0   0  0  0
386 100   0   0   0   0  1  0
387 200000 194   0   0   0  0  0
388 100   0   0   0   0  1  0
389 200000 195   0   0   0  0  0
390 100   0   0   0   0  1  0
391 200000 196   0   0   0  0  0
392 100   0   0   0   0  1  0
393 200000 197   0   0   0  0  0
394 100   0   0   0   0  1  0
395 200000 198   0   0   0  0  0
396 100   0   0   0   0  1  0
397 200000 199   0   0   0  0  0
398 100   0   0   0   0  1  0
399 200000 200   0   0   0  0  0
400 100   0   0   0   0  1  0
401 200000 201   0   0   0  0  0
402 100   0   0   0   0  1  0

# Format of RF events:
# id amplitude mag_id phase_id time_shape_id delay freq phase
# ..        Hz   ....     ....          ....    us   Hz   rad
[RF]
1          128 1 2 3 0 217140 0
2          128 1 2 3 0 -7237.99 0
3          128 1 2 3 0 -7165.24 0
4          128 1 2 3 0 -7092.5 0
5          128 1 2 3 0 -7019.76 0
6          128 1 2 3 0 -6947.01 0
7          128 1 2 3 0 -6874.27 0
8          128 1 2 3 0 -6801.53 0
9          128 1 2 3 0 -6728.78 0
10          128 1 2 3 0 -6656.04 0
11          128 1 2 3 0 -6583.3 0
12          128 1 2 3 0 -6510.55 0
13          128 1 2 3 0 -6437.81 0
14          128 1 2 3 0 -6365.06 0
15          128 1 2 3 0 -6292.32 0
16          128 1 2 3 0 -6219.58 0
17          128 1 2 3 0 -6146.83 0
18          128 1 2 3 0 -6074.09 0
19          128 1 2 3 0 -6001.35 0
20          128 1 2 3 0 -5928.6 0
21          128 1 2 3 0 -5855.86 0
22          128 1 2 3 0 -5783.12 0
23          128 1 2 3 0 -5710.37 0
24          128 1 2 3 0 -5637.63 0
25          128 1 2 3 0 -5564.89 0
26          128 1 2 3 0 -5492.14 0
27          128 1 2 3 0 -5419.4 0
28          128 1 2 3 0 -5346.65 0
29          128 1 2 3 0 -5273.91 0
30          128 1 2 3 0 -5201.17 0
31          128 1 2 3 0 -5128.42 0
32          128 1 2 3 0 -5055.68 0
33          128 1 2 3 0 -4982.94 0
34          128 1 2 3 0 -4910.19 0
35          128 1 2 3 0 -4837.45 0
36          128 1 2 3 0 -4764.71 0
37          128 1 2 3 0 -4691.96 0
38          128 1 2 3 0 -4619.22 0
39          128 1 2 3 0 -4546.47 0
40          128 1 2 3 0 -4473.73 0
41          128 1 2 3 0 -4400.99 0
42          128 1 2 3 0 -4328.24 0
43          128 1 2 3 0 -4255.5 0
44          128 1 2 3 0 -4182.76 0
45          128 1 2 3 0 -4110.01 0
46          128 1 2 3 0 -4037.27 0
47          128 1 2 3 0 -3964.53 0
48          128 1 2 3 0 -3891.78 0
49          128 1 2 3 0 -3819.04 0
50          128 1 2 3 0 -3746.3 0
51          128 1 2 3 0 -3673.55 0
52          128 1 2 3 0 -3600.81 0
53          128 1 2 3 0 -3528.06 0
54          128 1 2 3 0 -3455.32 0
55          128 1 2 3 0 -3382.58 0
56          128 1 2 3 0 -3309.83 0
57          128 1 2 3 0 -3237.09 0
58          128 1 2 3 0 -3164.35 0
59          128 1 2 3 0 -3091.6 0
60          128 1 2 3 0 -3018.86 0
61          128 1 2 3 0 -2946.12 0
62          128 1 2 3 0 -2873.37 0
63          128 1 2 3 0 -2800.63 0
64          128 1 2 3 0 -2727.88 0
65          128 1 2 3 0 -2655.14 0
66          128 1 2 3 0 -2582.4 0
67          128 1 2 3 0 -2509.65 0
68          128 1 2 3 0 -2436.91 0
69          128 1 2 3 0 -2364.17 0
70          128 1 2 3 0 -2291.42 0
71          128 1 2 3 0 -2218.68 0
72          128 1 2 3 0 -2145.94 0
73          128 1 2 3 0 -2073.19 0
74          128 1 2 3 0 -2000.45 0
75          128 1 2 3 0 -1927.71 0
76          128 1 2 3 0 -1854.96 0
77          128 1 2 3 0 -1782.22 0
78          128 1 2 3 0 -1709.47 0
79          128 1 2 3 0 -1636.73 0
80          128 1 2 3 0 -1563.99 0
81          128 1 2 3 0 -1491.24 0
82          128 1 2 3 0 -1418.5 0
83          128 1 2 3 0 -1345.76 0
84          128 1 2 3 0 -1273.01 0
85          128 1 2 3 0 -1200.27 0
86          128 1 2 3 0 -1127.53 0
87          128 1 2 3 0 -1054.78 0
88          128 1 2 3 0 -982.039 0
89          128 1 2 3 0 -909.295 0
90          128 1 2 3 0 -836.551 0
91          128 1 2 3 0 -763.808 0
92          128 1 2 3 0 -691.064 0
93          128 1 2 3 0 -618.321 0
94          128 1 2 3 0 -545.577 0
95          128 1 2 3 0 -472.833 0
96          128 1 2 3 0 -400.09 0
97          128 1 2 3 0 -327.346 0
98          128 1 2 3 0 -254.603 0
99          128 1 2 3 0 -181.859 0
100          128 1 2 3 0 -109.115 0
101          128 1 2 3 0 -36.3718 0
102          128 1 2 3 0 36.3718 0
103          128 1 2 3 0 109.115 0
104          128 1 2 3 0 181.859 0
105          128 1 2 3 0 254.603 0
106          128 1 2 3 0 327.346 0
107          128 1 2 3 0 400.09 0
108          128 1 2 3 0 472.833 0
109          128 1 2 3 0 545.577 0
110          128 1 2 3 0 618.321 0
111          128 1 2 3 0 691.064 0
112          128 1 2 3 0 763.808 0
113          128 1 2 3 0 836.551 0
114          128 1 2 3 0 909.295 0
115          128 1 2 3 0 982.039 0
116          128 1 2 3 0 1054.78 0
117          128 1 2 3 0 1127.53 0
118          128 1 2 3 0 1200.27 0
119          128 1 2 3 0 1273.01 0
120          128 1 2 3 0 1345.76 0
121          128 1 2 3 0 1418.5 0
122          128 1 2 3 0 1491.24 0
123          128 1 2 3 0 1563.99 0
124          128 1 2 3 0 1636.73 0
125          128 1 2 3 0 1709.47 0
126          128 1 2 3 0 1782.22 0
127          128 1 2 3 0 1854.96 0
128          128 1 2 3 0 1927.71 0
129          128 1 2 3 0 2000.45 0
130          128 1 2 3 0 2073.19 0
131          128 1 2 3 0 2145.94 0
132          128 1 2 3 0 2218.68 0
133          128 1 2 3 0 2291.42 0
134          128 1 2 3 0 2364.17 0
135          128 1 2 3 0 2436.91 0
136          128 1 2 3 0 2509.65 0
137          128 1 2 3 0 2582.4 0
138          128 1 2 3 0 2655.14 0
139          128 1 2 3 0 2727.88 0
140          128 1 2 3 0 2800.63 0
141          128 1 2 3 0 2873.37 0
142          128 1 2 3 0 2946.12 0
143          128 1 2 3 0 3018.86 0
144          128 1 2 3 0 3091.6 0
145          128 1 2 3 0 3164.35 0
146          128 1 2 3 0 3237.09 0
147          128 1 2 3 0 3309.83 0
148          128 1 2 3 0 3382.58 0
149          128 1 2 3 0 3455.32 0
150          128 1 2 3 0 3528.06 0
151          128 1 2 3 0 3600.81 0
152          128 1 2 3 0 3673.55 0
153          128 1 2 3 0 3746.3 0
154          128 1 2 3 0 3819.04 0
155          128 1 2 3 0 3891.78 0
156          128 1 2 3 0 3964.53 0
157          128 1 2 3 0 4037.27 0
158          128 1 2 3 0 4110.01 0
159          128 1 2 3 0 4182.76 0
160          128 1 2 3 0 4255.5 0
161          128 1 2 3 0 4328.24 0
162          128 1 2 3 0 4400.99 0
163          128 1 2 3 0 4473.73 0
164          128 1 2 3 0 4546.47 0
165          128 1 2 3 0 4619.22 0
166          128 1 2 3 0 4691.96 0
167          128 1 2 3 0 4764.71 0
168          128 1 2 3 0 4837.45 0
169          128 1 2 3 0 4910.19 0
170          128 1 2 3 0 4982.94 0
171          128 1 2 3 0 5055.68 0
172          128 1 2 3 0 5128.42 0
173          128 1 2 3 0 5201.17 0
174          128 1 2 3 0 5273.91 0
175          128 1 2 3 0 5346.65 0
176          128 1 2 3 0 5419.4 0
177          128 1 2 3 0 5492.14 0
178          128 1 2 3 0 5564.89 0
179          128 1 2 3 0 5637.63 0
180          128 1 2 3 0 5710.37 0
181          128 1 2 3 0 5783.12 0
182          128 1 2 3 0 5855.86 0
183          128 1 2 3 0 5928.6 0
184          128 1 2 3 0 6001.35 0
185          128 1 2 3 0 6074.09 0
186          128 1 2 3 0 6146.83 0
187          128 1 2 3 0 6219.58 0
188          128 1 2 3 0 6292.32 0
189          128 1 2 3 0 6365.06 0
190          128 1 2 3 0 6437.81 0
191          128 1 2 3 0 6510.55 0
192          128 1 2 3 0 6583.3 0
193          128 1 2 3 0 6656.04 0
194          128 1 2 3 0 6728.78 0
195          128 1 2 3 0 6801.53 0
196          128 1 2 3 0 6874.27 0
197          128 1 2 3 0 6947.01 0
198          128 1 2 3 0 7019.76 0
199          128 1 2 3 0 7092.5 0
200          128 1 2 3 0 7165.24 0
201          128 1 2 3 0 7237.99 0

# Format of ADC events:
# id num dwell delay freq phase
# ..  ..    ns    us   Hz   rad
[ADC]
1 1 1000000 0 0 0

# Sequence Shapes
[SHAPES]

shape_id 1
num_samples 2
1
1

shape_id 2
num_samples 2
0
0

shape_id 3
num_samples 2
0
2000000


[SIGNATURE]
# This is the hash of the Pulseq file, calculated right before the [SIGNATURE] section was added
# It can be reproduced/verified with md5sum if the file trimmed to the position right above [SIGNATURE]
# The new line character preceding [SIGNATURE] BELONGS to the signature (and needs to be stripped away for recalculating/verification)
Type md5
Hash de29b0209269c0c4032f88f33e06a177
