# Pulseq sequence file
# Created by PyPulseq

# Created for Pulseq-CEST
# https://pulseq-cest.github.io/
# Created by: DANIEL MIKSCH
# Created at: 17-May-2026 01:37:15

[VERSION]
major 1
minor 4
revision 2

[DEFINITIONS]
AdcRasterTime 1e-07 
B0 17 
BlockDurationRaster 1e-05 
FREQ 723.7988 
GradientRasterTime 1e-05 
M0_offset 300 
RadiofrequencyRasterTime 1e-06 
TotalDuration 0.903 
n_ETM 1 
num_meas 301 
offsets_ppm 300 -10 -9.93311037 -9.86622074 -9.7993311 -9.73244147 -9.66555184 -9.59866221 -9.53177258 -9.46488294 -9.39799331 -9.33110368 -9.26421405 -9.19732441 -9.13043478 -9.06354515 -8.99665552 -8.92976589 -8.86287625 -8.79598662 -8.72909699 -8.66220736 -8.59531773 -8.52842809 -8.46153846 -8.39464883 -8.3277592 -8.26086957 -8.19397993 -8.1270903 -8.06020067 -7.99331104 -7.9264214 -7.85953177 -7.79264214 -7.72575251 -7.65886288 -7.59197324 -7.52508361 -7.45819398 -7.39130435 -7.32441472 -7.25752508 -7.19063545 -7.12374582 -7.05685619 -6.98996656 -6.92307692 -6.85618729 -6.78929766 -6.72240803 -6.65551839 -6.58862876 -6.52173913 -6.4548495 -6.38795987 -6.32107023 -6.2541806 -6.18729097 -6.12040134 -6.05351171 -5.98662207 -5.91973244 -5.85284281 -5.78595318 -5.71906355 -5.65217391 -5.58528428 -5.51839465 -5.45150502 -5.38461538 -5.31772575 -5.25083612 -5.18394649 -5.11705686 -5.05016722 -4.98327759 -4.91638796 -4.84949833 -4.7826087 -4.71571906 -4.64882943 -4.5819398 -4.51505017 -4.44816054 -4.3812709 -4.31438127 -4.24749164 -4.18060201 -4.11371237 -4.04682274 -3.97993311 -3.91304348 -3.84615385 -3.77926421 -3.71237458 -3.64548495 -3.57859532 -3.51170569 -3.44481605 -3.37792642 -3.31103679 -3.24414716 -3.17725753 -3.11036789 -3.04347826 -2.97658863 -2.909699 -2.84280936 -2.77591973 -2.7090301 -2.64214047 -2.57525084 -2.5083612 -2.44147157 -2.37458194 -2.30769231 -2.24080268 -2.17391304 -2.10702341 -2.04013378 -1.97324415 -1.90635452 -1.83946488 -1.77257525 -1.70568562 -1.63879599 -1.57190635 -1.50501672 -1.43812709 -1.37123746 -1.30434783 -1.23745819 -1.17056856 -1.10367893 -1.0367893 -0.969899666 -0.903010033 -0.836120401 -0.769230769 -0.702341137 -0.635451505 -0.568561873 -0.501672241 -0.434782609 -0.367892977 -0.301003344 -0.234113712 -0.16722408 -0.100334448 -0.0334448161 0.0334448161 0.100334448 0.16722408 0.234113712 0.301003344 0.367892977 0.434782609 0.501672241 0.568561873 0.635451505 0.702341137 0.769230769 0.836120401 0.903010033 0.969899666 1.0367893 1.10367893 1.17056856 1.23745819 1.30434783 1.37123746 1.43812709 1.50501672 1.57190635 1.63879599 1.70568562 1.77257525 1.83946488 1.90635452 1.97324415 2.04013378 2.10702341 2.17391304 2.24080268 2.30769231 2.37458194 2.44147157 2.5083612 2.57525084 2.64214047 2.7090301 2.77591973 2.84280936 2.909699 2.97658863 3.04347826 3.11036789 3.17725753 3.24414716 3.31103679 3.37792642 3.44481605 3.51170569 3.57859532 3.64548495 3.71237458 3.77926421 3.84615385 3.91304348 3.97993311 4.04682274 4.11371237 4.18060201 4.24749164 4.31438127 4.3812709 4.44816054 4.51505017 4.5819398 4.64882943 4.71571906 4.7826087 4.84949833 4.91638796 4.98327759 5.05016722 5.11705686 5.18394649 5.25083612 5.31772575 5.38461538 5.45150502 5.51839465 5.58528428 5.65217391 5.71906355 5.78595318 5.85284281 5.91973244 5.98662207 6.05351171 6.12040134 6.18729097 6.2541806 6.32107023 6.38795987 6.4548495 6.52173913 6.58862876 6.65551839 6.72240803 6.78929766 6.85618729 6.92307692 6.98996656 7.05685619 7.12374582 7.19063545 7.25752508 7.32441472 7.39130435 7.45819398 7.52508361 7.59197324 7.65886288 7.72575251 7.79264214 7.85953177 7.9264214 7.99331104 8.06020067 8.1270903 8.19397993 8.26086957 8.3277592 8.39464883 8.46153846 8.52842809 8.59531773 8.66220736 8.72909699 8.79598662 8.86287625 8.92976589 8.99665552 9.06354515 9.13043478 9.19732441 9.26421405 9.33110368 9.39799331 9.46488294 9.53177258 9.59866221 9.66555184 9.73244147 9.7993311 9.86622074 9.93311037 10 
seq_id_string zspec_rabi_short 

# Format of blocks:
# NUM DUR RF  GX  GY  GZ  ADC  EXT
[BLOCKS]
  1 200   1   0   0   0  0  0
  2 100   0   0   0   0  1  0
  3 200   2   0   0   0  0  0
  4 100   0   0   0   0  1  0
  5 200   3   0   0   0  0  0
  6 100   0   0   0   0  1  0
  7 200   4   0   0   0  0  0
  8 100   0   0   0   0  1  0
  9 200   5   0   0   0  0  0
 10 100   0   0   0   0  1  0
 11 200   6   0   0   0  0  0
 12 100   0   0   0   0  1  0
 13 200   7   0   0   0  0  0
 14 100   0   0   0   0  1  0
 15 200   8   0   0   0  0  0
 16 100   0   0   0   0  1  0
 17 200   9   0   0   0  0  0
 18 100   0   0   0   0  1  0
 19 200  10   0   0   0  0  0
 20 100   0   0   0   0  1  0
 21 200  11   0   0   0  0  0
 22 100   0   0   0   0  1  0
 23 200  12   0   0   0  0  0
 24 100   0   0   0   0  1  0
 25 200  13   0   0   0  0  0
 26 100   0   0   0   0  1  0
 27 200  14   0   0   0  0  0
 28 100   0   0   0   0  1  0
 29 200  15   0   0   0  0  0
 30 100   0   0   0   0  1  0
 31 200  16   0   0   0  0  0
 32 100   0   0   0   0  1  0
 33 200  17   0   0   0  0  0
 34 100   0   0   0   0  1  0
 35 200  18   0   0   0  0  0
 36 100   0   0   0   0  1  0
 37 200  19   0   0   0  0  0
 38 100   0   0   0   0  1  0
 39 200  20   0   0   0  0  0
 40 100   0   0   0   0  1  0
 41 200  21   0   0   0  0  0
 42 100   0   0   0   0  1  0
 43 200  22   0   0   0  0  0
 44 100   0   0   0   0  1  0
 45 200  23   0   0   0  0  0
 46 100   0   0   0   0  1  0
 47 200  24   0   0   0  0  0
 48 100   0   0   0   0  1  0
 49 200  25   0   0   0  0  0
 50 100   0   0   0   0  1  0
 51 200  26   0   0   0  0  0
 52 100   0   0   0   0  1  0
 53 200  27   0   0   0  0  0
 54 100   0   0   0   0  1  0
 55 200  28   0   0   0  0  0
 56 100   0   0   0   0  1  0
 57 200  29   0   0   0  0  0
 58 100   0   0   0   0  1  0
 59 200  30   0   0   0  0  0
 60 100   0   0   0   0  1  0
 61 200  31   0   0   0  0  0
 62 100   0   0   0   0  1  0
 63 200  32   0   0   0  0  0
 64 100   0   0   0   0  1  0
 65 200  33   0   0   0  0  0
 66 100   0   0   0   0  1  0
 67 200  34   0   0   0  0  0
 68 100   0   0   0   0  1  0
 69 200  35   0   0   0  0  0
 70 100   0   0   0   0  1  0
 71 200  36   0   0   0  0  0
 72 100   0   0   0   0  1  0
 73 200  37   0   0   0  0  0
 74 100   0   0   0   0  1  0
 75 200  38   0   0   0  0  0
 76 100   0   0   0   0  1  0
 77 200  39   0   0   0  0  0
 78 100   0   0   0   0  1  0
 79 200  40   0   0   0  0  0
 80 100   0   0   0   0  1  0
 81 200  41   0   0   0  0  0
 82 100   0   0   0   0  1  0
 83 200  42   0   0   0  0  0
 84 100   0   0   0   0  1  0
 85 200  43   0   0   0  0  0
 86 100   0   0   0   0  1  0
 87 200  44   0   0   0  0  0
 88 100   0   0   0   0  1  0
 89 200  45   0   0   0  0  0
 90 100   0   0   0   0  1  0
 91 200  46   0   0   0  0  0
 92 100   0   0   0   0  1  0
 93 200  47   0   0   0  0  0
 94 100   0   0   0   0  1  0
 95 200  48   0   0   0  0  0
 96 100   0   0   0   0  1  0
 97 200  49   0   0   0  0  0
 98 100   0   0   0   0  1  0
 99 200  50   0   0   0  0  0
100 100   0   0   0   0  1  0
101 200  51   0   0   0  0  0
102 100   0   0   0   0  1  0
103 200  52   0   0   0  0  0
104 100   0   0   0   0  1  0
105 200  53   0   0   0  0  0
106 100   0   0   0   0  1  0
107 200  54   0   0   0  0  0
108 100   0   0   0   0  1  0
109 200  55   0   0   0  0  0
110 100   0   0   0   0  1  0
111 200  56   0   0   0  0  0
112 100   0   0   0   0  1  0
113 200  57   0   0   0  0  0
114 100   0   0   0   0  1  0
115 200  58   0   0   0  0  0
116 100   0   0   0   0  1  0
117 200  59   0   0   0  0  0
118 100   0   0   0   0  1  0
119 200  60   0   0   0  0  0
120 100   0   0   0   0  1  0
121 200  61   0   0   0  0  0
122 100   0   0   0   0  1  0
123 200  62   0   0   0  0  0
124 100   0   0   0   0  1  0
125 200  63   0   0   0  0  0
126 100   0   0   0   0  1  0
127 200  64   0   0   0  0  0
128 100   0   0   0   0  1  0
129 200  65   0   0   0  0  0
130 100   0   0   0   0  1  0
131 200  66   0   0   0  0  0
132 100   0   0   0   0  1  0
133 200  67   0   0   0  0  0
134 100   0   0   0   0  1  0
135 200  68   0   0   0  0  0
136 100   0   0   0   0  1  0
137 200  69   0   0   0  0  0
138 100   0   0   0   0  1  0
139 200  70   0   0   0  0  0
140 100   0   0   0   0  1  0
141 200  71   0   0   0  0  0
142 100   0   0   0   0  1  0
143 200  72   0   0   0  0  0
144 100   0   0   0   0  1  0
145 200  73   0   0   0  0  0
146 100   0   0   0   0  1  0
147 200  74   0   0   0  0  0
148 100   0   0   0   0  1  0
149 200  75   0   0   0  0  0
150 100   0   0   0   0  1  0
151 200  76   0   0   0  0  0
152 100   0   0   0   0  1  0
153 200  77   0   0   0  0  0
154 100   0   0   0   0  1  0
155 200  78   0   0   0  0  0
156 100   0   0   0   0  1  0
157 200  79   0   0   0  0  0
158 100   0   0   0   0  1  0
159 200  80   0   0   0  0  0
160 100   0   0   0   0  1  0
161 200  81   0   0   0  0  0
162 100   0   0   0   0  1  0
163 200  82   0   0   0  0  0
164 100   0   0   0   0  1  0
165 200  83   0   0   0  0  0
166 100   0   0   0   0  1  0
167 200  84   0   0   0  0  0
168 100   0   0   0   0  1  0
169 200  85   0   0   0  0  0
170 100   0   0   0   0  1  0
171 200  86   0   0   0  0  0
172 100   0   0   0   0  1  0
173 200  87   0   0   0  0  0
174 100   0   0   0   0  1  0
175 200  88   0   0   0  0  0
176 100   0   0   0   0  1  0
177 200  89   0   0   0  0  0
178 100   0   0   0   0  1  0
179 200  90   0   0   0  0  0
180 100   0   0   0   0  1  0
181 200  91   0   0   0  0  0
182 100   0   0   0   0  1  0
183 200  92   0   0   0  0  0
184 100   0   0   0   0  1  0
185 200  93   0   0   0  0  0
186 100   0   0   0   0  1  0
187 200  94   0   0   0  0  0
188 100   0   0   0   0  1  0
189 200  95   0   0   0  0  0
190 100   0   0   0   0  1  0
191 200  96   0   0   0  0  0
192 100   0   0   0   0  1  0
193 200  97   0   0   0  0  0
194 100   0   0   0   0  1  0
195 200  98   0   0   0  0  0
196 100   0   0   0   0  1  0
197 200  99   0   0   0  0  0
198 100   0   0   0   0  1  0
199 200 100   0   0   0  0  0
200 100   0   0   0   0  1  0
201 200 101   0   0   0  0  0
[RF]
1          128 1 2 3 0 217140 0
2          128 1 2 3 0 -7237.99 0
3          128 1 2 3 0 -7189.57 0
4          128 1 2 3 0 -7141.16 0
5          128 1 2 3 0 -7092.74 0
6          128 1 2 3 0 -7044.33 0
7          128 1 2 3 0 -6995.91 0
8          128 1 2 3 0 -6947.5 0
9          128 1 2 3 0 -6899.09 0
10          128 1 2 3 0 -6850.67 0
11          128 1 2 3 0 -6802.26 0
12          128 1 2 3 0 -6753.84 0
13          128 1 2 3 0 -6705.43 0
14          128 1 2 3 0 -6657.01 0
15          128 1 2 3 0 -6608.6 0
16          128 1 2 3 0 -6560.18 0
17          128 1 2 3 0 -6511.77 0
18          128 1 2 3 0 -6463.35 0
19          128 1 2 3 0 -6414.94 0
20          128 1 2 3 0 -6366.52 0
21          128 1 2 3 0 -6318.11 0
22          128 1 2 3 0 -6269.7 0
23          128 1 2 3 0 -6221.28 0
24          128 1 2 3 0 -6172.87 0
25          128 1 2 3 0 -6124.45 0
26          128 1 2 3 0 -6076.04 0
27          128 1 2 3 0 -6027.62 0
28          128 1 2 3 0 -5979.21 0
29          128 1 2 3 0 -5930.79 0
30          128 1 2 3 0 -5882.38 0
31          128 1 2 3 0 -5833.96 0
32          128 1 2 3 0 -5785.55 0
33          128 1 2 3 0 -5737.13 0
34          128 1 2 3 0 -5688.72 0
35          128 1 2 3 0 -5640.31 0
36          128 1 2 3 0 -5591.89 0
37          128 1 2 3 0 -5543.48 0
38          128 1 2 3 0 -5495.06 0
39          128 1 2 3 0 -5446.65 0
40          128 1 2 3 0 -5398.23 0
41          128 1 2 3 0 -5349.82 0
42          128 1 2 3 0 -5301.4 0
43          128 1 2 3 0 -5252.99 0
44          128 1 2 3 0 -5204.57 0
45          128 1 2 3 0 -5156.16 0
46          128 1 2 3 0 -5107.74 0
47          128 1 2 3 0 -5059.33 0
48          128 1 2 3 0 -5010.91 0
49          128 1 2 3 0 -4962.5 0
50          128 1 2 3 0 -4914.09 0
51          128 1 2 3 0 -4865.67 0
52          128 1 2 3 0 -4817.26 0
53          128 1 2 3 0 -4768.84 0
54          128 1 2 3 0 -4720.43 0
55          128 1 2 3 0 -4672.01 0
56          128 1 2 3 0 -4623.6 0
57          128 1 2 3 0 -4575.18 0
58          128 1 2 3 0 -4526.77 0
59          128 1 2 3 0 -4478.35 0
60          128 1 2 3 0 -4429.94 0
61          128 1 2 3 0 -4381.52 0
62          128 1 2 3 0 -4333.11 0
63          128 1 2 3 0 -4284.7 0
64          128 1 2 3 0 -4236.28 0
65          128 1 2 3 0 -4187.87 0
66          128 1 2 3 0 -4139.45 0
67          128 1 2 3 0 -4091.04 0
68          128 1 2 3 0 -4042.62 0
69          128 1 2 3 0 -3994.21 0
70          128 1 2 3 0 -3945.79 0
71          128 1 2 3 0 -3897.38 0
72          128 1 2 3 0 -3848.96 0
73          128 1 2 3 0 -3800.55 0
74          128 1 2 3 0 -3752.13 0
75          128 1 2 3 0 -3703.72 0
76          128 1 2 3 0 -3655.3 0
77          128 1 2 3 0 -3606.89 0
78          128 1 2 3 0 -3558.48 0
79          128 1 2 3 0 -3510.06 0
80          128 1 2 3 0 -3461.65 0
81          128 1 2 3 0 -3413.23 0
82          128 1 2 3 0 -3364.82 0
83          128 1 2 3 0 -3316.4 0
84          128 1 2 3 0 -3267.99 0
85          128 1 2 3 0 -3219.57 0
86          128 1 2 3 0 -3171.16 0
87          128 1 2 3 0 -3122.74 0
88          128 1 2 3 0 -3074.33 0
89          128 1 2 3 0 -3025.91 0
90          128 1 2 3 0 -2977.5 0
91          128 1 2 3 0 -2929.09 0
92          128 1 2 3 0 -2880.67 0
93          128 1 2 3 0 -2832.26 0
94          128 1 2 3 0 -2783.84 0
95          128 1 2 3 0 -2735.43 0
96          128 1 2 3 0 -2687.01 0
97          128 1 2 3 0 -2638.6 0
98          128 1 2 3 0 -2590.18 0
99          128 1 2 3 0 -2541.77 0
100          128 1 2 3 0 -2493.35 0
101          128 1 2 3 0 -2444.94 0
102          128 1 2 3 0 -2396.52 0
103          128 1 2 3 0 -2348.11 0
104          128 1 2 3 0 -2299.7 0
105          128 1 2 3 0 -2251.28 0
106          128 1 2 3 0 -2202.87 0
107          128 1 2 3 0 -2154.45 0
108          128 1 2 3 0 -2106.04 0
109          128 1 2 3 0 -2057.62 0
110          128 1 2 3 0 -2009.21 0
111          128 1 2 3 0 -1960.79 0
112          128 1 2 3 0 -1912.38 0
113          128 1 2 3 0 -1863.96 0
114          128 1 2 3 0 -1815.55 0
115          128 1 2 3 0 -1767.13 0
116          128 1 2 3 0 -1718.72 0
117          128 1 2 3 0 -1670.3 0
118          128 1 2 3 0 -1621.89 0
119          128 1 2 3 0 -1573.48 0
120          128 1 2 3 0 -1525.06 0
121          128 1 2 3 0 -1476.65 0
122          128 1 2 3 0 -1428.23 0
123          128 1 2 3 0 -1379.82 0
124          128 1 2 3 0 -1331.4 0
125          128 1 2 3 0 -1282.99 0
126          128 1 2 3 0 -1234.57 0
127          128 1 2 3 0 -1186.16 0
128          128 1 2 3 0 -1137.74 0
129          128 1 2 3 0 -1089.33 0
130          128 1 2 3 0 -1040.91 0
131          128 1 2 3 0 -992.5 0
132          128 1 2 3 0 -944.085 0
133          128 1 2 3 0 -895.671 0
134          128 1 2 3 0 -847.256 0
135          128 1 2 3 0 -798.841 0
136          128 1 2 3 0 -750.427 0
137          128 1 2 3 0 -702.012 0
138          128 1 2 3 0 -653.598 0
139          128 1 2 3 0 -605.183 0
140          128 1 2 3 0 -556.768 0
141          128 1 2 3 0 -508.354 0
142          128 1 2 3 0 -459.939 0
143          128 1 2 3 0 -411.524 0
144          128 1 2 3 0 -363.11 0
145          128 1 2 3 0 -314.695 0
146          128 1 2 3 0 -266.28 0
147          128 1 2 3 0 -217.866 0
148          128 1 2 3 0 -169.451 0
149          128 1 2 3 0 -121.037 0
150          128 1 2 3 0 -72.622 0
151          128 1 2 3 0 -24.2073 0
152          128 1 2 3 0 24.2073 0
153          128 1 2 3 0 72.622 0
154          128 1 2 3 0 121.037 0
155          128 1 2 3 0 169.451 0
156          128 1 2 3 0 217.866 0
157          128 1 2 3 0 266.28 0
158          128 1 2 3 0 314.695 0
159          128 1 2 3 0 363.11 0
160          128 1 2 3 0 411.524 0
161          128 1 2 3 0 459.939 0
162          128 1 2 3 0 508.354 0
163          128 1 2 3 0 556.768 0
164          128 1 2 3 0 605.183 0
165          128 1 2 3 0 653.598 0
166          128 1 2 3 0 702.012 0
167          128 1 2 3 0 750.427 0
168          128 1 2 3 0 798.841 0
169          128 1 2 3 0 847.256 0
170          128 1 2 3 0 895.671 0
171          128 1 2 3 0 944.085 0
172          128 1 2 3 0 992.5 0
173          128 1 2 3 0 1040.91 0
174          128 1 2 3 0 1089.33 0
175          128 1 2 3 0 1137.74 0
176          128 1 2 3 0 1186.16 0
177          128 1 2 3 0 1234.57 0
178          128 1 2 3 0 1282.99 0
179          128 1 2 3 0 1331.4 0
180          128 1 2 3 0 1379.82 0
181          128 1 2 3 0 1428.23 0
182          128 1 2 3 0 1476.65 0
183          128 1 2 3 0 1525.06 0
184          128 1 2 3 0 1573.48 0
185          128 1 2 3 0 1621.89 0
186          128 1 2 3 0 1670.3 0
187          128 1 2 3 0 1718.72 0
188          128 1 2 3 0 1767.13 0
189          128 1 2 3 0 1815.55 0
190          128 1 2 3 0 1863.96 0
191          128 1 2 3 0 1912.38 0
192          128 1 2 3 0 1960.79 0
193          128 1 2 3 0 2009.21 0
194          128 1 2 3 0 2057.62 0
195          128 1 2 3 0 2106.04 0
196          128 1 2 3 0 2154.45 0
197          128 1 2 3 0 2202.87 0
198          128 1 2 3 0 2251.28 0
199          128 1 2 3 0 2299.7 0
200          128 1 2 3 0 2348.11 0
201          128 1 2 3 0 2396.52 0
202          128 1 2 3 0 2444.94 0
203          128 1 2 3 0 2493.35 0
204          128 1 2 3 0 2541.77 0
205          128 1 2 3 0 2590.18 0
206          128 1 2 3 0 2638.6 0
207          128 1 2 3 0 2687.01 0
208          128 1 2 3 0 2735.43 0
209          128 1 2 3 0 2783.84 0
210          128 1 2 3 0 2832.26 0
211          128 1 2 3 0 2880.67 0
212          128 1 2 3 0 2929.09 0
213          128 1 2 3 0 2977.5 0
214          128 1 2 3 0 3025.91 0
215          128 1 2 3 0 3074.33 0
216          128 1 2 3 0 3122.74 0
217          128 1 2 3 0 3171.16 0
218          128 1 2 3 0 3219.57 0
219          128 1 2 3 0 3267.99 0
220          128 1 2 3 0 3316.4 0
221          128 1 2 3 0 3364.82 0
222          128 1 2 3 0 3413.23 0
223          128 1 2 3 0 3461.65 0
224          128 1 2 3 0 3510.06 0
225          128 1 2 3 0 3558.48 0
226          128 1 2 3 0 3606.89 0
227          128 1 2 3 0 3655.3 0
228          128 1 2 3 0 3703.72 0
229          128 1 2 3 0 3752.13 0
230          128 1 2 3 0 3800.55 0
231          128 1 2 3 0 3848.96 0
232          128 1 2 3 0 3897.38 0
233          128 1 2 3 0 3945.79 0
234          128 1 2 3 0 3994.21 0
235          128 1 2 3 0 4042.62 0
236          128 1 2 3 0 4091.04 0
237          128 1 2 3 0 4139.45 0
238          128 1 2 3 0 4187.87 0
239          128 1 2 3 0 4236.28 0
240          128 1 2 3 0 4284.7 0
241          128 1 2 3 0 4333.11 0
242          128 1 2 3 0 4381.52 0
243          128 1 2 3 0 4429.94 0
244          128 1 2 3 0 4478.35 0
245          128 1 2 3 0 4526.77 0
246          128 1 2 3 0 4575.18 0
247          128 1 2 3 0 4623.6 0
248          128 1 2 3 0 4672.01 0
249          128 1 2 3 0 4720.43 0
250          128 1 2 3 0 4768.84 0
251          128 1 2 3 0 4817.26 0
252          128 1 2 3 0 4865.67 0
253          128 1 2 3 0 4914.09 0
254          128 1 2 3 0 4962.5 0
255          128 1 2 3 0 5010.91 0
256          128 1 2 3 0 5059.33 0
257          128 1 2 3 0 5107.74 0
258          128 1 2 3 0 5156.16 0
259          128 1 2 3 0 5204.57 0
260          128 1 2 3 0 5252.99 0
261          128 1 2 3 0 5301.4 0
262          128 1 2 3 0 5349.82 0
263          128 1 2 3 0 5398.23 0
264          128 1 2 3 0 5446.65 0
265          128 1 2 3 0 5495.06 0
266          128 1 2 3 0 5543.48 0
267          128 1 2 3 0 5591.89 0
268          128 1 2 3 0 5640.31 0
269          128 1 2 3 0 5688.72 0
270          128 1 2 3 0 5737.13 0
271          128 1 2 3 0 5785.55 0
272          128 1 2 3 0 5833.96 0
273          128 1 2 3 0 5882.38 0
274          128 1 2 3 0 5930.79 0
275          128 1 2 3 0 5979.21 0
276          128 1 2 3 0 6027.62 0
277          128 1 2 3 0 6076.04 0
278          128 1 2 3 0 6124.45 0
279          128 1 2 3 0 6172.87 0
280          128 1 2 3 0 6221.28 0
281          128 1 2 3 0 6269.7 0
282          128 1 2 3 0 6318.11 0
283          128 1 2 3 0 6366.52 0
284          128 1 2 3 0 6414.94 0
285          128 1 2 3 0 6463.35 0
286          128 1 2 3 0 6511.77 0
287          128 1 2 3 0 6560.18 0
288          128 1 2 3 0 6608.6 0
289          128 1 2 3 0 6657.01 0
290          128 1 2 3 0 6705.43 0
291          128 1 2 3 0 6753.84 0
292          128 1 2 3 0 6802.26 0
293          128 1 2 3 0 6850.67 0
294          128 1 2 3 0 6899.09 0
295          128 1 2 3 0 6947.5 0
296          128 1 2 3 0 6995.91 0
297          128 1 2 3 0 7044.33 0
298          128 1 2 3 0 7092.74 0
299          128 1 2 3 0 7141.16 0
300          128 1 2 3 0 7189.57 0
301          128 1 2 3 0 7237.99 0

# Format of ADC events:
# id num dwell delay freq phase
# ..  ..    ns    us   Hz   rad
[ADC]
1 1 1000000 0 0 0

# Sequence Shapes
[SHAPES]

shape_id 1
num_samples 2
1
1

shape_id 2
num_samples 2
0
0

shape_id 3
num_samples 2
0
2000


[SIGNATURE]
# This is the hash of the Pulseq file, calculated right before the [SIGNATURE] section was added
# It can be reproduced/verified with md5sum if the file trimmed to the position right above [SIGNATURE]
# The new line character preceding [SIGNATURE] BELONGS to the signature (and needs to be stripped away for recalculating/verification)
Type md5
Hash e0270f2f14288f952110cd802dfbb0ac
