# Pulseq sequence file
# Created by PyPulseq

# Created for Pulseq-CEST
# https://pulseq-cest.github.io/
# Created by: DANIEL MIKSCH
# Created at: 25-Jan-2025 14:58:51

[VERSION]
major 1
minor 4
revision 2

[DEFINITIONS]
AdcRasterTime 1e-07 
B0 17 
BlockDurationRaster 1e-05 
FREQ 723.7988 
GradientRasterTime 1e-05 
M0_offset 10 
RadiofrequencyRasterTime 1e-06 
TotalDuration 2.8385 
a 90 
n_ETM 10 
num_meas 1 
offsets_ppm 10 
seq_id_string ['0_ETM', '10_ETM', '20_ETM', '30_ETM', '40_ETM', '50_ETM', '60_ETM', '70_ETM', '80_ETM', '90_ETM', '100_ETM', '110_ETM', '120_ETM', '130_ETM', '140_ETM', '150_ETM', '160_ETM', '170_ETM', '180_ETM', '190_ETM', '200_ETM', '210_ETM', '220_ETM', '230_ETM', '240_ETM', '250_ETM'] 

# Format of blocks:
# NUM DUR RF  GX  GY  GZ  ADC  EXT
[BLOCKS]
   1 200   1   0   0   0  0  0
   2  50   0   0   0   0  0  0
   3  50   0   0   0   1  0  0
   4  50   0   0   0   0  0  0
   5 200   1   0   0   0  0  0
   6 800   0   0   0   0  0  0
   7 200   1   0   0   0  0  0
   8  50   0   0   0   0  0  0
   9  50   0   0   0   1  0  0
  10  50   0   0   0   0  0  0
  11 200   1   0   0   0  0  0
  12 800   0   0   0   0  0  0
  13 200   1   0   0   0  0  0
  14  50   0   0   0   0  0  0
  15  50   0   0   0   1  0  0
  16  50   0   0   0   0  0  0
  17 200   1   0   0   0  0  0
  18 800   0   0   0   0  0  0
  19 200   1   0   0   0  0  0
  20  50   0   0   0   0  0  0
  21  50   0   0   0   1  0  0
  22  50   0   0   0   0  0  0
  23 200   1   0   0   0  0  0
  24 800   0   0   0   0  0  0
  25 200   1   0   0   0  0  0
  26  50   0   0   0   0  0  0
  27  50   0   0   0   1  0  0
  28  50   0   0   0   0  0  0
  29 200   1   0   0   0  0  0
  30 800   0   0   0   0  0  0
  31 200   1   0   0   0  0  0
  32  50   0   0   0   0  0  0
  33  50   0   0   0   1  0  0
  34  50   0   0   0   0  0  0
  35 200   1   0   0   0  0  0
  36 800   0   0   0   0  0  0
  37 200   1   0   0   0  0  0
  38  50   0   0   0   0  0  0
  39  50   0   0   0   1  0  0
  40  50   0   0   0   0  0  0
  41 200   1   0   0   0  0  0
  42 800   0   0   0   0  0  0
  43 200   1   0   0   0  0  0
  44  50   0   0   0   0  0  0
  45  50   0   0   0   1  0  0
  46  50   0   0   0   0  0  0
  47 200   1   0   0   0  0  0
  48 800   0   0   0   0  0  0
  49 200   1   0   0   0  0  0
  50  50   0   0   0   0  0  0
  51  50   0   0   0   1  0  0
  52  50   0   0   0   0  0  0
  53 200   1   0   0   0  0  0
  54 800   0   0   0   0  0  0
  55 200   1   0   0   0  0  0
  56  50   0   0   0   0  0  0
  57  50   0   0   0   1  0  0
  58  50   0   0   0   0  0  0
  59 200   1   0   0   0  0  0
  60 800   0   0   0   0  0  0
  61 200   1   0   0   0  0  0
  62  50   0   0   0   0  0  0
  63  50   0   0   0   1  0  0
  64  50   0   0   0   0  0  0
  65 200   1   0   0   0  0  0
  66 800   0   0   0   0  0  0
  67 200   1   0   0   0  0  0
  68  50   0   0   0   0  0  0
  69  50   0   0   0   1  0  0
  70  50   0   0   0   0  0  0
  71 200   1   0   0   0  0  0
  72 800   0   0   0   0  0  0
  73 200   1   0   0   0  0  0
  74  50   0   0   0   0  0  0
  75  50   0   0   0   1  0  0
  76  50   0   0   0   0  0  0
  77 200   1   0   0   0  0  0
  78 800   0   0   0   0  0  0
  79 200   1   0   0   0  0  0
  80  50   0   0   0   0  0  0
  81  50   0   0   0   1  0  0
  82  50   0   0   0   0  0  0
  83 200   1   0   0   0  0  0
  84 800   0   0   0   0  0  0
  85 200   1   0   0   0  0  0
  86  50   0   0   0   0  0  0
  87  50   0   0   0   1  0  0
  88  50   0   0   0   0  0  0
  89 200   1   0   0   0  0  0
  90 800   0   0   0   0  0  0
  91 200   1   0   0   0  0  0
  92  50   0   0   0   0  0  0
  93  50   0   0   0   1  0  0
  94  50   0   0   0   0  0  0
  95 200   1   0   0   0  0  0
  96 800   0   0   0   0  0  0
  97 200   1   0   0   0  0  0
  98  50   0   0   0   0  0  0
  99  50   0   0   0   1  0  0
 100  50   0   0   0   0  0  0
 101 200   1   0   0   0  0  0
 102 800   0   0   0   0  0  0
 103 200   1   0   0   0  0  0
 104  50   0   0   0   0  0  0
 105  50   0   0   0   1  0  0
 106  50   0   0   0   0  0  0
 107 200   1   0   0   0  0  0
 108 800   0   0   0   0  0  0
 109 200   1   0   0   0  0  0
 110  50   0   0   0   0  0  0
 111  50   0   0   0   1  0  0
 112  50   0   0   0   0  0  0
 113 200   1   0   0   0  0  0
 114 800   0   0   0   0  0  0
 115 200   1   0   0   0  0  0
 116  50   0   0   0   0  0  0
 117  50   0   0   0   1  0  0
 118  50   0   0   0   0  0  0
 119 200   1   0   0   0  0  0
 120 800   0   0   0   0  0  0
 121 200   1   0   0   0  0  0
 122  50   0   0   0   0  0  0
 123  50   0   0   0   1  0  0
 124  50   0   0   0   0  0  0
 125 200   1   0   0   0  0  0
 126 800   0   0   0   0  0  0
 127 200   1   0   0   0  0  0
 128  50   0   0   0   0  0  0
 129  50   0   0   0   1  0  0
 130  50   0   0   0   0  0  0
 131 200   1   0   0   0  0  0
 132 800   0   0   0   0  0  0
 133 200   1   0   0   0  0  0
 134  50   0   0   0   0  0  0
 135  50   0   0   0   1  0  0
 136  50   0   0   0   0  0  0
 137 200   1   0   0   0  0  0
 138 800   0   0   0   0  0  0
 139 200   1   0   0   0  0  0
 140  50   0   0   0   0  0  0
 141  50   0   0   0   1  0  0
 142  50   0   0   0   0  0  0
 143 200   1   0   0   0  0  0
 144 800   0   0   0   0  0  0
 145 200   1   0   0   0  0  0
 146  50   0   0   0   0  0  0
 147  50   0   0   0   1  0  0
 148  50   0   0   0   0  0  0
 149 200   1   0   0   0  0  0
 150 800   0   0   0   0  0  0
 151 200   1   0   0   0  0  0
 152  50   0   0   0   0  0  0
 153  50   0   0   0   1  0  0
 154  50   0   0   0   0  0  0
 155 200   1   0   0   0  0  0
 156 800   0   0   0   0  0  0
 157 200   1   0   0   0  0  0
 158  50   0   0   0   0  0  0
 159  50   0   0   0   1  0  0
 160  50   0   0   0   0  0  0
 161 200   1   0   0   0  0  0
 162 800   0   0   0   0  0  0
 163 200   1   0   0   0  0  0
 164  50   0   0   0   0  0  0
 165  50   0   0   0   1  0  0
 166  50   0   0   0   0  0  0
 167 200   1   0   0   0  0  0
 168 800   0   0   0   0  0  0
 169 200   1   0   0   0  0  0
 170  50   0   0   0   0  0  0
 171  50   0   0   0   1  0  0
 172  50   0   0   0   0  0  0
 173 200   1   0   0   0  0  0
 174 800   0   0   0   0  0  0
 175 200   1   0   0   0  0  0
 176  50   0   0   0   0  0  0
 177  50   0   0   0   1  0  0
 178  50   0   0   0   0  0  0
 179 200   1   0   0   0  0  0
 180 800   0   0   0   0  0  0
 181 200   1   0   0   0  0  0
 182  50   0   0   0   0  0  0
 183  50   0   0   0   1  0  0
 184  50   0   0   0   0  0  0
 185 200   1   0   0   0  0  0
 186 800   0   0   0   0  0  0
 187 200   1   0   0   0  0  0
 188  50   0   0   0   0  0  0
 189  50   0   0   0   1  0  0
 190  50   0   0   0   0  0  0
 191 200   1   0   0   0  0  0
 192 800   0   0   0   0  0  0
 193 200   1   0   0   0  0  0
 194  50   0   0   0   0  0  0
 195  50   0   0   0   1  0  0
 196  50   0   0   0   0  0  0
 197 200   1   0   0   0  0  0
 198 800   0   0   0   0  0  0
 199 200   1   0   0   0  0  0
 200  50   0   0   0   0  0  0
 201  50   0   0   0   1  0  0
 202  50   0   0   0   0  0  0
 203 200   1   0   0   0  0  0
 204 800   0   0   0   0  0  0
 205 200   1   0   0   0  0  0
 206  50   0   0   0   0  0  0
 207  50   0   0   0   1  0  0
 208  50   0   0   0   0  0  0
 209 200   1   0   0   0  0  0
 210 800   0   0   0   0  0  0
 211 200   1   0   0   0  0  0
 212  50   0   0   0   0  0  0
 213  50   0   0   0   1  0  0
 214  50   0   0   0   0  0  0
 215 200   1   0   0   0  0  0
 216 800   0   0   0   0  0  0
 217 200   1   0   0   0  0  0
 218  50   0   0   0   0  0  0
 219  50   0   0   0   1  0  0
 220  50   0   0   0   0  0  0
 221 200   1   0   0   0  0  0
 222 800   0   0   0   0  0  0
 223 200   1   0   0   0  0  0
 224  50   0   0   0   0  0  0
 225  50   0   0   0   1  0  0
 226  50   0   0   0   0  0  0
 227 200   1   0   0   0  0  0
 228 800   0   0   0   0  0  0
 229 200   1   0   0   0  0  0
 230  50   0   0   0   0  0  0
 231  50   0   0   0   1  0  0
 232  50   0   0   0   0  0  0
 233 200   1   0   0   0  0  0
 234 800   0   0   0   0  0  0
 235 200   1   0   0   0  0  0
 236  50   0   0   0   0  0  0
 237  50   0   0   0   1  0  0
 238  50   0   0   0   0  0  0
 239 200   1   0   0   0  0  0
 240 800   0   0   0   0  0  0
 241 200   1   0   0   0  0  0
 242  50   0   0   0   0  0  0
 243  50   0   0   0   1  0  0
 244  50   0   0   0   0  0  0
 245 200   1   0   0   0  0  0
 246 800   0   0   0   0  0  0
 247 200   1   0   0   0  0  0
 248  50   0   0   0   0  0  0
 249  50   0   0   0   1  0  0
 250  50   0   0   0   0  0  0
 251 200   1   0   0   0  0  0
 252 800   0   0   0   0  0  0
 253 200   1   0   0   0  0  0
 254  50   0   0   0   0  0  0
 255  50   0   0   0   1  0  0
 256  50   0   0   0   0  0  0
 257 200   1   0   0   0  0  0
 258 800   0   0   0   0  0  0
 259 200   1   0   0   0  0  0
 260  50   0   0   0   0  0  0
 261  50   0   0   0   1  0  0
 262  50   0   0   0   0  0  0
 263 200   1   0   0   0  0  0
 264 800   0   0   0   0  0  0
 265 200   1   0   0   0  0  0
 266  50   0   0   0   0  0  0
 267  50   0   0   0   1  0  0
 268  50   0   0   0   0  0  0
 269 200   1   0   0   0  0  0
 270 800   0   0   0   0  0  0
 271 200   1   0   0   0  0  0
 272  50   0   0   0   0  0  0
 273  50   0   0   0   1  0  0
 274  50   0   0   0   0  0  0
 275 200   1   0   0   0  0  0
 276 800   0   0   0   0  0  0
 277 200   1   0   0   0  0  0
 278  50   0   0   0   0  0  0
 279  50   0   0   0   1  0  0
 280  50   0   0   0   0  0  0
 281 200   1   0   0   0  0  0
 282 800   0   0   0   0  0  0
 283 200   1   0   0   0  0  0
 284  50   0   0   0   0  0  0
 285  50   0   0   0   1  0  0
 286  50   0   0   0   0  0  0
 287 200   1   0   0   0  0  0
 288 800   0   0   0   0  0  0
 289 200   1   0   0   0  0  0
 290  50   0   0   0   0  0  0
 291  50   0   0   0   1  0  0
 292  50   0   0   0   0  0  0
 293 200   1   0   0   0  0  0
 294 800   0   0   0   0  0  0
 295 200   1   0   0   0  0  0
 296  50   0   0   0   0  0  0
 297  50   0   0   0   1  0  0
[RF]
1      499.999 1 2 0 0 7237.99 0
2      499.999 1 2 0 0 0 0

# Format of arbitrary gradients:
#   time_shape_id of 0 means default timing (stepping with grad_raster starting at 1/2 of grad_raster)
# id amplitude amp_shape_id time_shape_id delay
# ..      Hz/m       ..         ..          us
[GRADIENTS]
1  5.56899e+07 3 4 0

# Format of ADC events:
# id num dwell delay freq phase
# ..  ..    ns    us   Hz   rad
[ADC]
1 1 1000000 0 0 0

# Sequence Shapes
[SHAPES]

shape_id 1
num_samples 2000
3.5e-06
1e-07
1e-07
9
2e-07
1e-07
1e-07
1
2e-07
1e-07
1e-07
0
2e-07
1e-07
2e-07
1e-07
2e-07
1e-07
2e-07
1e-07
2e-07
2e-07
0
1e-07
2e-07
2e-07
8
3e-07
2e-07
2e-07
0
3e-07
2e-07
3e-07
2e-07
3e-07
3e-07
0
2e-07
3e-07
3e-07
4
4e-07
3e-07
3e-07
0
4e-07
3e-07
4e-07
4e-07
1
3e-07
4e-07
4e-07
0
5e-07
4e-07
4e-07
0
5e-07
4e-07
5e-07
5e-07
5
6e-07
5e-07
6e-07
6e-07
4
7e-07
6e-07
7e-07
7e-07
2
8e-07
7e-07
8e-07
8e-07
3
9e-07
9e-07
3
1e-06
1e-06
3
1.1e-06
1.1e-06
2
1.2e-06
1.1e-06
1.3e-06
1.2e-06
1.2e-06
0
1.3e-06
1.3e-06
0
1.4e-06
1.4e-06
3
1.5e-06
1.6e-06
1.5e-06
1.6e-06
1.6e-06
0
1.7e-06
1.6e-06
1.8e-06
1.7e-06
1.8e-06
1.9e-06
1.8e-06
1.9e-06
2e-06
2e-06
1
2.1e-06
2.1e-06
1
2.2e-06
2.3e-06
2.3e-06
1
2.4e-06
2.4e-06
0
2.5e-06
2.6e-06
2.5e-06
2.7e-06
2.7e-06
1
2.8e-06
2.9e-06
2.9e-06
0
3e-06
3e-06
0
3.1e-06
3.2e-06
3.2e-06
0
3.3e-06
3.3e-06
0
3.5e-06
3.4e-06
3.6e-06
3.6e-06
0
3.7e-06
3.8e-06
3.9e-06
3.9e-06
0
4e-06
4.1e-06
4.1e-06
0
4.3e-06
4.3e-06
0
4.4e-06
4.5e-06
4.6e-06
4.7e-06
4.7e-06
0
4.9e-06
4.9e-06
0
5.1e-06
5.1e-06
0
5.3e-06
5.3e-06
0
5.5e-06
5.5e-06
0
5.7e-06
5.7e-06
0
5.9e-06
6e-06
6.1e-06
6.3e-06
6.3e-06
0
6.5e-06
6.5e-06
0
6.8e-06
6.8e-06
0
7e-06
7.1e-06
7.2e-06
7.4e-06
7.5e-06
7.6e-06
7.8e-06
8e-06
8.1e-06
8.2e-06
8.4e-06
8.6e-06
8.7e-06
8.8e-06
9.1e-06
9.2e-06
9.4e-06
9.5e-06
9.7e-06
9.9e-06
1.01e-05
1.03e-05
1.05e-05
1.06e-05
1.09e-05
1.1e-05
1.12e-05
1.15e-05
1.17e-05
1.18e-05
1.21e-05
1.23e-05
1.25e-05
1.28e-05
1.3e-05
1.32e-05
1.34e-05
1.37e-05
1.4e-05
1.42e-05
1.44e-05
1.47e-05
1.5e-05
1.52e-05
1.55e-05
1.58e-05
1.6e-05
1.63e-05
1.67e-05
1.69e-05
1.72e-05
1.75e-05
1.78e-05
1.81e-05
1.85e-05
1.88e-05
1.91e-05
1.94e-05
1.97e-05
2.02e-05
2.04e-05
2.08e-05
2.12e-05
2.15e-05
2.19e-05
2.23e-05
2.27e-05
2.3e-05
2.35e-05
2.38e-05
2.42e-05
2.47e-05
2.51e-05
2.55e-05
2.59e-05
2.64e-05
2.68e-05
2.73e-05
2.77e-05
2.82e-05
2.87e-05
2.91e-05
2.96e-05
3.02e-05
3.06e-05
3.11e-05
3.17e-05
3.21e-05
3.27e-05
3.33e-05
3.38e-05
3.43e-05
3.49e-05
3.55e-05
3.61e-05
3.66e-05
3.73e-05
3.79e-05
3.84e-05
3.91e-05
3.98e-05
4.03e-05
4.11e-05
4.17e-05
4.23e-05
4.31e-05
4.37e-05
4.44e-05
4.52e-05
4.58e-05
4.66e-05
4.73e-05
4.81e-05
4.89e-05
4.96e-05
5.04e-05
5.12e-05
5.2e-05
5.28e-05
5.36e-05
5.45e-05
5.53e-05
5.62e-05
5.71e-05
5.8e-05
5.88e-05
5.98e-05
6.07e-05
6.16e-05
6.26e-05
6.35e-05
6.45e-05
6.55e-05
6.65e-05
6.75e-05
6.85e-05
6.96e-05
7.07e-05
7.17e-05
7.28e-05
7.39e-05
7.5e-05
7.61e-05
7.73e-05
7.84e-05
7.96e-05
8.08e-05
8.2e-05
8.32e-05
8.44e-05
8.57e-05
8.7e-05
8.83e-05
8.95e-05
9.09e-05
9.22e-05
9.35e-05
9.49e-05
9.63e-05
9.77e-05
9.91e-05
0.0001006
0.000102
0.0001035
0.000105
0.0001065
0.000108
0.0001096
0.0001111
0.0001127
0.0001143
0.000116
0.0001176
0.0001193
0.0001209
0.0001227
0.0001244
0.0001261
0.0001279
0.0001297
0.0001315
0.0001333
0.0001352
0.0001371
0.000139
0.0001409
0.0001428
0.0001448
0.0001468
0.0001488
0.0001508
0.0001529
0.000155
0.0001571
0.0001593
0.0001613
0.0001636
0.0001658
0.000168
0.0001702
0.0001726
0.0001748
0.0001772
0.0001796
0.0001819
0.0001843
0.0001868
0.0001893
0.0001917
0.0001943
0.0001968
0.0001994
0.000202
0.0002046
0.0002073
0.00021
0.0002127
0.0002154
0.0002183
0.000221
0.0002239
0.0002267
0.0002296
0.0002326
0.0002355
0.0002385
0.0002416
0.0002445
0.0002477
0.0002508
0.0002539
0.0002571
0.0002604
0.0002635
0.0002669
0.0002701
0.0002735
0.0002769
0.0002803
0.0002837
0.0002872
0.0002908
0.0002942
0.0002979
0.0003015
0.0003051
0.0003088
0.0003126
0.0003163
0.0003201
0.000324
0.0003278
0.0003317
0.0003356
0.0003397
0.0003437
0.0003477
0.0003518
0.0003559
0.0003601
0.0003644
0.0003685
0.0003729
0.0003772
0.0003815
0.000386
0.0003904
0.0003949
0.0003994
0.0004039
0.0004086
0.0004132
0.0004179
0.0004227
0.0004273
0.0004323
0.000437
0.000442
0.0004468
0.0004519
0.0004569
0.0004619
0.0004671
0.0004721
0.0004774
0.0004826
0.0004879
0.0004932
0.0004986
0.0005039
0.0005095
0.0005149
0.0005204
0.0005261
0.0005316
0.0005373
0.0005431
0.0005488
0.0005546
0.0005605
0.0005663
0.0005723
0.0005783
0.0005843
0.0005904
0.0005965
0.0006027
0.0006089
0.0006152
0.0006215
0.0006278
0.0006342
0.0006407
0.0006471
0.0006537
0.0006603
0.000667
0.0006736
0.0006803
0.0006871
0.0006939
0.0007008
0.0007077
0.0007147
0.0007216
0.0007288
0.0007358
0.000743
0.0007501
0.0007575
0.0007647
0.000772
0.0007795
0.0007868
0.0007944
0.0008019
0.0008094
0.0008171
0.0008247
0.0008325
0.0008402
0.0008481
0.0008559
0.0008637
0.0008718
0.0008797
0.0008878
0.0008959
0.000904
0.0009122
0.0009205
0.0009287
0.000937
0.0009454
0.0009538
0.0009623
0.0009708
0.0009793
0.0009879
0.0009966
0.0010053
0.001014
0.0010227
0.0010316
0.0010405
0.0010494
0.0010583
0.0010673
0.0010764
0.0010854
0.0010946
0.0011037
0.001113
0.0011222
0.0011315
0.0011409
0.0011502
0.0011597
0.0011691
0.0011786
0.0011882
0.0011978
0.0012073
0.0012171
0.0012268
0.0012365
0.0012463
0.0012561
0.0012659
0.0012759
0.0012858
0.0012958
0.0013058
0.0013158
0.0013259
0.001336
0.0013462
0.0013564
0.0013665
0.0013769
0.0013871
0.0013974
0.0014078
0.0014182
0.0014286
0.001439
0.0014495
0.00146
0.0014705
0.0014812
0.0014917
0.0015023
0.001513
0.0015236
0.0015343
0.0015451
0.0015558
0.0015667
0.0015774
0.0015882
0.0015991
0.0016099
0.0016208
0.0016318
0.0016427
0.0016536
0.0016646
0.0016756
0.0016866
0.0016976
0.0017087
0.0017197
0.0017308
0.0017419
0.001753
0.001764
0.0017753
0.0017863
0.0017975
0.0018087
0.0018198
0.001831
0.0018422
0.0018533
0.0018646
0.0018758
0.0018869
0.0018982
0.0019094
0.0019206
0.0019318
0.0019431
0.0019542
0.0019655
0.0019767
0.0019878
0.0019991
0.0020103
0.0020215
0.0020327
0.0020438
0.0020551
0.0020661
0.0020774
0.0020885
0.0020996
0.0021107
0.0021219
0.0021329
0.002144
0.002155
0.0021661
0.0021771
0.0021881
0.0021991
0.00221
0.002221
0.0022319
0.0022427
0.0022536
0.0022645
0.0022753
0.002286
0.0022968
0.0023075
0.0023181
0.0023289
0.0023394
0.00235
0.0023606
0.002371
0.0023816
0.0023919
0.0024024
0.0024127
0.002423
0.0024332
0.0024435
0.0024536
0.0024637
0.0024739
0.0024838
0.0024938
0.0025037
0.0025136
0.0025234
0.0025332
0.0025429
0.0025525
0.002562
0.0025716
0.0025811
0.0025905
0.0025998
0.0026091
0.0026183
0.0026274
0.0026365
0.0026455
0.0026544
0.0026633
0.0026721
0.0026808
0.0026894
0.002698
0.0027065
0.0027149
0.0027232
0.0027315
0.0027396
0.0027477
0.0027557
0.0027636
0.0027715
0.0027792
0.0027868
0.0027944
0.0028018
0.0028093
0.0028165
0.0028237
0.0028307
0.0028378
0.0028447
0.0028514
0.0028582
0.0028648
0.0028712
0.0028776
0.0028839
0.0028901
0.0028961
0.0029021
0.002908
0.0029137
0.0029193
0.0029248
0.0029302
0.0029355
0.0029407
0.0029457
0.0029507
0.0029554
0.0029602
0.0029647
0.0029692
0.0029734
0.0029777
0.0029818
0.0029857
0.0029895
0.0029932
0.0029968
0.0030002
0.0030035
0.0030066
0.0030097
0.0030126
0.0030153
0.0030179
0.0030205
0.0030227
0.003025
0.0030271
0.0030289
0.0030308
0.0030323
0.0030339
0.0030352
0.0030365
0.0030374
0.0030384
0.0030392
0.0030397
0.0030402
0.0030405
0.0030407
0.0030407
0
0.0030405
0.0030403
0.0030397
0.0030392
0.0030384
0.0030374
0.0030364
0.0030351
0.0030338
0.0030322
0.0030304
0.0030286
0.0030265
0.0030244
0.0030219
0.0030194
0.0030168
0.0030139
0.0030108
0.0030077
0.0030043
0.0030008
0.0029971
0.0029932
0.0029892
0.0029851
0.0029806
0.0029762
0.0029714
0.0029666
0.0029615
0.0029563
0.002951
0.0029454
0.0029397
0.0029337
0.0029278
0.0029214
0.0029151
0.0029085
0.0029017
0.0028948
0.0028877
0.0028804
0.002873
0.0028653
0.0028576
0.0028495
0.0028415
0.0028331
0.0028246
0.002816
0.0028071
0.0027981
0.0027889
0.0027796
0.00277
0.0027603
0.0027504
0.0027404
0.0027302
0.0027197
0.0027092
0.0026984
0.0026875
0.0026764
0.0026652
0.0026537
0.0026421
0.0026304
0.0026184
0.0026062
0.002594
0.0025815
0.0025689
0.0025561
0.0025432
0.00253
0.0025167
0.0025032
0.0024897
0.0024758
0.0024618
0.0024477
0.0024335
0.002419
0.0024043
0.0023896
0.0023746
0.0023596
0.0023442
0.0023289
0.0023132
0.0022976
0.0022816
0.0022656
0.0022493
0.002233
0.0022165
0.0021998
0.002183
0.002166
0.0021489
0.0021317
0.0021142
0.0020966
0.0020789
0.002061
0.0020431
0.0020249
0.0020066
0.0019881
0.0019696
0.0019509
0.001932
0.001913
0.0018939
0.0018747
0.0018552
0.0018357
0.0018161
0.0017963
0.0017763
0.0017563
0.0017362
0.0017158
0.0016955
0.0016749
0.0016542
0.0016334
0.0016126
0.0015915
0.0015704
0.0015492
0.0015278
0.0015063
0.0014848
0.001463
0.0014413
0.0014194
0.0013973
0.0013753
0.001353
0.0013308
0.0013083
0.0012858
0.0012633
0.0012405
0.0012178
0.0011949
0.001172
0.0011489
0.0011257
0.0011026
0.0010792
0.0010559
0.0010325
0.0010089
0.0009853
0.0009616
0.0009379
0.000914
0.0008902
0.0008662
0.0008422
0.0008181
0.0007939
0.0007698
0.0007455
0.0007212
0.0006968
0.0006724
0.0006479
0.0006234
0.0005989
0.0005742
0.0005496
0.0005248
0.0005002
0.0004753
0.0004506
0.0004257
0.0004008
0.0003759
0.000351
0.0003261
0.000301
0.0002761
0.000251
0.0002259
0.0002009
0.0001759
0.0001507
0.0001256
0.0001005
7.54e-05
5.03e-05
2.51e-05
0
-2.51e-05
-5.03e-05
-7.54e-05
-0.0001005
-0.0001256
-0.0001507
-0.0001759
-0.0002009
-0.0002259
-0.000251
-0.0002761
-0.000301
-0.0003261
-0.000351
-0.0003759
-0.0004008
-0.0004257
-0.0004506
-0.0004753
-0.0005002
-0.0005248
-0.0005496
-0.0005742
-0.0005989
-0.0006234
-0.0006479
-0.0006724
-0.0006968
-0.0007212
-0.0007455
-0.0007698
-0.0007939
-0.0008181
-0.0008422
-0.0008662
-0.0008902
-0.000914
-0.0009379
-0.0009616
-0.0009853
-0.0010089
-0.0010325
-0.0010559
-0.0010792
-0.0011026
-0.0011257
-0.0011489
-0.001172
-0.0011949
-0.0012178
-0.0012405
-0.0012633
-0.0012858
-0.0013083
-0.0013308
-0.001353
-0.0013753
-0.0013973
-0.0014194
-0.0014413
-0.001463
-0.0014848
-0.0015063
-0.0015278
-0.0015492
-0.0015704
-0.0015915
-0.0016126
-0.0016334
-0.0016542
-0.0016749
-0.0016955
-0.0017158
-0.0017362
-0.0017563
-0.0017763
-0.0017963
-0.0018161
-0.0018357
-0.0018552
-0.0018747
-0.0018939
-0.001913
-0.001932
-0.0019509
-0.0019696
-0.0019881
-0.0020066
-0.0020249
-0.0020431
-0.002061
-0.0020789
-0.0020966
-0.0021142
-0.0021317
-0.0021489
-0.002166
-0.002183
-0.0021998
-0.0022165
-0.002233
-0.0022493
-0.0022656
-0.0022816
-0.0022976
-0.0023132
-0.0023289
-0.0023442
-0.0023596
-0.0023746
-0.0023896
-0.0024043
-0.002419
-0.0024335
-0.0024477
-0.0024618
-0.0024758
-0.0024897
-0.0025032
-0.0025167
-0.00253
-0.0025432
-0.0025561
-0.0025689
-0.0025815
-0.002594
-0.0026062
-0.0026184
-0.0026304
-0.0026421
-0.0026537
-0.0026652
-0.0026764
-0.0026875
-0.0026984
-0.0027092
-0.0027197
-0.0027302
-0.0027404
-0.0027504
-0.0027603
-0.00277
-0.0027796
-0.0027889
-0.0027981
-0.0028071
-0.002816
-0.0028246
-0.0028331
-0.0028415
-0.0028495
-0.0028576
-0.0028653
-0.002873
-0.0028804
-0.0028877
-0.0028948
-0.0029017
-0.0029085
-0.0029151
-0.0029214
-0.0029278
-0.0029337
-0.0029397
-0.0029454
-0.002951
-0.0029563
-0.0029615
-0.0029666
-0.0029714
-0.0029762
-0.0029806
-0.0029851
-0.0029892
-0.0029932
-0.0029971
-0.0030008
-0.0030043
-0.0030077
-0.0030108
-0.0030139
-0.0030168
-0.0030194
-0.0030219
-0.0030244
-0.0030265
-0.0030286
-0.0030304
-0.0030322
-0.0030338
-0.0030351
-0.0030364
-0.0030374
-0.0030384
-0.0030392
-0.0030397
-0.0030403
-0.0030405
-0.0030407
-0.0030407
0
-0.0030405
-0.0030402
-0.0030397
-0.0030392
-0.0030384
-0.0030374
-0.0030365
-0.0030352
-0.0030339
-0.0030323
-0.0030308
-0.0030289
-0.0030271
-0.003025
-0.0030227
-0.0030205
-0.0030179
-0.0030153
-0.0030126
-0.0030097
-0.0030066
-0.0030035
-0.0030002
-0.0029968
-0.0029932
-0.0029895
-0.0029857
-0.0029818
-0.0029777
-0.0029734
-0.0029692
-0.0029647
-0.0029602
-0.0029554
-0.0029507
-0.0029457
-0.0029407
-0.0029355
-0.0029302
-0.0029248
-0.0029193
-0.0029137
-0.002908
-0.0029021
-0.0028961
-0.0028901
-0.0028839
-0.0028776
-0.0028712
-0.0028648
-0.0028582
-0.0028514
-0.0028447
-0.0028378
-0.0028307
-0.0028237
-0.0028165
-0.0028093
-0.0028018
-0.0027944
-0.0027868
-0.0027792
-0.0027715
-0.0027636
-0.0027557
-0.0027477
-0.0027396
-0.0027315
-0.0027232
-0.0027149
-0.0027065
-0.002698
-0.0026894
-0.0026808
-0.0026721
-0.0026633
-0.0026544
-0.0026455
-0.0026365
-0.0026274
-0.0026183
-0.0026091
-0.0025998
-0.0025905
-0.0025811
-0.0025716
-0.002562
-0.0025525
-0.0025429
-0.0025332
-0.0025234
-0.0025136
-0.0025037
-0.0024938
-0.0024838
-0.0024739
-0.0024637
-0.0024536
-0.0024435
-0.0024332
-0.002423
-0.0024127
-0.0024024
-0.0023919
-0.0023816
-0.002371
-0.0023606
-0.00235
-0.0023394
-0.0023289
-0.0023181
-0.0023075
-0.0022968
-0.002286
-0.0022753
-0.0022645
-0.0022536
-0.0022427
-0.0022319
-0.002221
-0.00221
-0.0021991
-0.0021881
-0.0021771
-0.0021661
-0.002155
-0.002144
-0.0021329
-0.0021219
-0.0021107
-0.0020996
-0.0020885
-0.0020774
-0.0020661
-0.0020551
-0.0020438
-0.0020327
-0.0020215
-0.0020103
-0.0019991
-0.0019878
-0.0019767
-0.0019655
-0.0019542
-0.0019431
-0.0019318
-0.0019206
-0.0019094
-0.0018982
-0.0018869
-0.0018758
-0.0018646
-0.0018533
-0.0018422
-0.001831
-0.0018198
-0.0018087
-0.0017975
-0.0017863
-0.0017753
-0.001764
-0.001753
-0.0017419
-0.0017308
-0.0017197
-0.0017087
-0.0016976
-0.0016866
-0.0016756
-0.0016646
-0.0016536
-0.0016427
-0.0016318
-0.0016208
-0.0016099
-0.0015991
-0.0015882
-0.0015774
-0.0015667
-0.0015558
-0.0015451
-0.0015343
-0.0015236
-0.001513
-0.0015023
-0.0014917
-0.0014812
-0.0014705
-0.00146
-0.0014495
-0.001439
-0.0014286
-0.0014182
-0.0014078
-0.0013974
-0.0013871
-0.0013769
-0.0013665
-0.0013564
-0.0013462
-0.001336
-0.0013259
-0.0013158
-0.0013058
-0.0012958
-0.0012858
-0.0012759
-0.0012659
-0.0012561
-0.0012463
-0.0012365
-0.0012268
-0.0012171
-0.0012073
-0.0011978
-0.0011882
-0.0011786
-0.0011691
-0.0011597
-0.0011502
-0.0011409
-0.0011315
-0.0011222
-0.001113
-0.0011037
-0.0010946
-0.0010854
-0.0010764
-0.0010673
-0.0010583
-0.0010494
-0.0010405
-0.0010316
-0.0010227
-0.001014
-0.0010053
-0.0009966
-0.0009879
-0.0009793
-0.0009708
-0.0009623
-0.0009538
-0.0009454
-0.000937
-0.0009287
-0.0009205
-0.0009122
-0.000904
-0.0008959
-0.0008878
-0.0008797
-0.0008718
-0.0008637
-0.0008559
-0.0008481
-0.0008402
-0.0008325
-0.0008247
-0.0008171
-0.0008094
-0.0008019
-0.0007944
-0.0007868
-0.0007795
-0.000772
-0.0007647
-0.0007575
-0.0007501
-0.000743
-0.0007358
-0.0007288
-0.0007216
-0.0007147
-0.0007077
-0.0007008
-0.0006939
-0.0006871
-0.0006803
-0.0006736
-0.000667
-0.0006603
-0.0006537
-0.0006471
-0.0006407
-0.0006342
-0.0006278
-0.0006215
-0.0006152
-0.0006089
-0.0006027
-0.0005965
-0.0005904
-0.0005843
-0.0005783
-0.0005723
-0.0005663
-0.0005605
-0.0005546
-0.0005488
-0.0005431
-0.0005373
-0.0005316
-0.0005261
-0.0005204
-0.0005149
-0.0005095
-0.0005039
-0.0004986
-0.0004932
-0.0004879
-0.0004826
-0.0004774
-0.0004721
-0.0004671
-0.0004619
-0.0004569
-0.0004519
-0.0004468
-0.000442
-0.000437
-0.0004323
-0.0004273
-0.0004227
-0.0004179
-0.0004132
-0.0004086
-0.0004039
-0.0003994
-0.0003949
-0.0003904
-0.000386
-0.0003815
-0.0003772
-0.0003729
-0.0003685
-0.0003644
-0.0003601
-0.0003559
-0.0003518
-0.0003477
-0.0003437
-0.0003397
-0.0003356
-0.0003317
-0.0003278
-0.000324
-0.0003201
-0.0003163
-0.0003126
-0.0003088
-0.0003051
-0.0003015
-0.0002979
-0.0002942
-0.0002908
-0.0002872
-0.0002837
-0.0002803
-0.0002769
-0.0002735
-0.0002701
-0.0002669
-0.0002635
-0.0002604
-0.0002571
-0.0002539
-0.0002508
-0.0002477
-0.0002445
-0.0002416
-0.0002385
-0.0002355
-0.0002326
-0.0002296
-0.0002267
-0.0002239
-0.000221
-0.0002183
-0.0002154
-0.0002127
-0.00021
-0.0002073
-0.0002046
-0.000202
-0.0001994
-0.0001968
-0.0001943
-0.0001917
-0.0001893
-0.0001868
-0.0001843
-0.0001819
-0.0001796
-0.0001772
-0.0001748
-0.0001726
-0.0001702
-0.000168
-0.0001658
-0.0001636
-0.0001613
-0.0001593
-0.0001571
-0.000155
-0.0001529
-0.0001508
-0.0001488
-0.0001468
-0.0001448
-0.0001428
-0.0001409
-0.000139
-0.0001371
-0.0001352
-0.0001333
-0.0001315
-0.0001297
-0.0001279
-0.0001261
-0.0001244
-0.0001227
-0.0001209
-0.0001193
-0.0001176
-0.000116
-0.0001143
-0.0001127
-0.0001111
-0.0001096
-0.000108
-0.0001065
-0.000105
-0.0001035
-0.000102
-0.0001006
-9.91e-05
-9.77e-05
-9.63e-05
-9.49e-05
-9.35e-05
-9.22e-05
-9.09e-05
-8.95e-05
-8.83e-05
-8.7e-05
-8.57e-05
-8.44e-05
-8.32e-05
-8.2e-05
-8.08e-05
-7.96e-05
-7.84e-05
-7.73e-05
-7.61e-05
-7.5e-05
-7.39e-05
-7.28e-05
-7.17e-05
-7.07e-05
-6.96e-05
-6.85e-05
-6.75e-05
-6.65e-05
-6.55e-05
-6.45e-05
-6.35e-05
-6.26e-05
-6.16e-05
-6.07e-05
-5.98e-05
-5.88e-05
-5.8e-05
-5.71e-05
-5.62e-05
-5.53e-05
-5.45e-05
-5.36e-05
-5.28e-05
-5.2e-05
-5.12e-05
-5.04e-05
-4.96e-05
-4.89e-05
-4.81e-05
-4.73e-05
-4.66e-05
-4.58e-05
-4.52e-05
-4.44e-05
-4.37e-05
-4.31e-05
-4.23e-05
-4.17e-05
-4.11e-05
-4.03e-05
-3.98e-05
-3.91e-05
-3.84e-05
-3.79e-05
-3.73e-05
-3.66e-05
-3.61e-05
-3.55e-05
-3.49e-05
-3.43e-05
-3.38e-05
-3.33e-05
-3.27e-05
-3.21e-05
-3.17e-05
-3.11e-05
-3.06e-05
-3.02e-05
-2.96e-05
-2.91e-05
-2.87e-05
-2.82e-05
-2.77e-05
-2.73e-05
-2.68e-05
-2.64e-05
-2.59e-05
-2.55e-05
-2.51e-05
-2.47e-05
-2.42e-05
-2.38e-05
-2.35e-05
-2.3e-05
-2.27e-05
-2.23e-05
-2.19e-05
-2.15e-05
-2.12e-05
-2.08e-05
-2.04e-05
-2.02e-05
-1.97e-05
-1.94e-05
-1.91e-05
-1.88e-05
-1.85e-05
-1.81e-05
-1.78e-05
-1.75e-05
-1.72e-05
-1.69e-05
-1.67e-05
-1.63e-05
-1.6e-05
-1.58e-05
-1.55e-05
-1.52e-05
-1.5e-05
-1.47e-05
-1.44e-05
-1.42e-05
-1.4e-05
-1.37e-05
-1.34e-05
-1.32e-05
-1.3e-05
-1.28e-05
-1.25e-05
-1.23e-05
-1.21e-05
-1.18e-05
-1.17e-05
-1.15e-05
-1.12e-05
-1.1e-05
-1.09e-05
-1.06e-05
-1.05e-05
-1.03e-05
-1.01e-05
-9.9e-06
-9.7e-06
-9.5e-06
-9.4e-06
-9.2e-06
-9.1e-06
-8.8e-06
-8.7e-06
-8.6e-06
-8.4e-06
-8.2e-06
-8.1e-06
-8e-06
-7.8e-06
-7.6e-06
-7.5e-06
-7.4e-06
-7.2e-06
-7.1e-06
-7e-06
-6.8e-06
-6.8e-06
0
-6.5e-06
-6.5e-06
0
-6.3e-06
-6.3e-06
0
-6.1e-06
-6e-06
-5.9e-06
-5.7e-06
-5.7e-06
0
-5.5e-06
-5.5e-06
0
-5.3e-06
-5.3e-06
0
-5.1e-06
-5.1e-06
0
-4.9e-06
-4.9e-06
0
-4.7e-06
-4.7e-06
0
-4.6e-06
-4.5e-06
-4.4e-06
-4.3e-06
-4.3e-06
0
-4.1e-06
-4.1e-06
0
-4e-06
-3.9e-06
-3.9e-06
0
-3.8e-06
-3.7e-06
-3.6e-06
-3.6e-06
0
-3.4e-06
-3.5e-06
-3.3e-06
-3.3e-06
0
-3.2e-06
-3.2e-06
0
-3.1e-06
-3e-06
-3e-06
0
-2.9e-06
-2.9e-06
0
-2.8e-06
-2.7e-06
-2.7e-06
1
-2.5e-06
-2.6e-06
-2.5e-06
-2.4e-06
-2.4e-06
0
-2.3e-06
-2.3e-06
1
-2.2e-06
-2.1e-06
-2.1e-06
1
-2e-06
-2e-06
1
-1.9e-06
-1.8e-06
-1.9e-06
-1.8e-06
-1.7e-06
-1.8e-06
-1.6e-06
-1.7e-06
-1.6e-06
-1.6e-06
0
-1.5e-06
-1.6e-06
-1.5e-06
-1.4e-06
-1.4e-06
3
-1.3e-06
-1.3e-06
0
-1.2e-06
-1.2e-06
0
-1.3e-06
-1.1e-06
-1.2e-06
-1.1e-06
-1.1e-06
2
-1e-06
-1e-06
3
-9e-07
-9e-07
3
-8e-07
-8e-07
3
-7e-07
-8e-07
-7e-07
-7e-07
2
-6e-07
-7e-07
-6e-07
-6e-07
4
-5e-07
-6e-07
-5e-07
-5e-07
5
-4e-07
-5e-07
-4e-07
-4e-07
0
-5e-07
-4e-07
-4e-07
0
-3e-07
-4e-07
-4e-07
1
-3e-07
-4e-07
-3e-07
-3e-07
0
-4e-07
-3e-07
-3e-07
4
-2e-07
-3e-07
-3e-07
0
-2e-07
-3e-07
-2e-07
-3e-07
-2e-07
-2e-07
0
-3e-07
-2e-07
-2e-07
8
-1e-07
-2e-07
-2e-07
0
-1e-07
-2e-07
-1e-07
-2e-07
-1e-07
-2e-07
-1e-07
-2e-07
-1e-07
-1e-07
0
-2e-07
-1e-07
-1e-07
1
-2e-07
-1e-07
-1e-07
9

shape_id 2
num_samples 2000
0
0
1998

shape_id 3
num_samples 500
0
0.02
0.02
48
0
0
398
-0.0204082
-0.0204081
-0.0204082
-0.0204082
0
-0.0204081
-0.0204082
-0.0204081
-0.0204082
-0.0204082
0
-0.0204081
-0.0204082
-0.0204082
0
-0.0204081
-0.0204082
-0.0204081
-0.0204082
-0.0204082
0
-0.0204081
-0.0204082
-0.0204082
0
-0.0204081
-0.0204082
-0.0204082
0
-0.0204081
-0.0204082
-0.0204081
-0.0204082
-0.0204082
0
-0.0204081
-0.0204082
-0.0204082
0
-0.0204081
-0.0204082
-0.0204082
0
-0.0204081
-0.0204082
-0.0204081
-0.0204082
-0.0204082
0
-0.0204081
-0.0204082
-0.0204082
0
-0.0204081
-0.0204082
-0.0204081
-0.0204082
-0.0204082
0
-0.0204081
-0.0204082

shape_id 4
num_samples 500
0.05
0.1
0.1
497


[SIGNATURE]
# This is the hash of the Pulseq file, calculated right before the [SIGNATURE] section was added
