# Pulseq sequence file
# Created by PyPulseq

# Created for Pulseq-CEST
# https://pulseq-cest.github.io/
# Created by: DANIEL MIKSCH
# Created at: 27-Apr-2025 23:14:50

[VERSION]
major 1
minor 4
revision 2

[DEFINITIONS]
AdcRasterTime 1e-07 
B0 17 
BlockDurationRaster 1e-05 
FREQ 723.7988 
GradientRasterTime 1e-05 
M0_offset 8 
RadiofrequencyRasterTime 1e-06 
TotalDuration 0.0865 
a 90 
n_ETM 1 
num_meas 1 
offsets_ppm 8 
seq_id_string custom_ETM_test 

# Format of blocks:
# NUM DUR RF  GX  GY  GZ  ADC  EXT
[BLOCKS]
1 100   0   0   0   0  0  0
2 200   1   0   0   1  0  0
3 8000   0   0   0   0  0  0
4 200   2   0   0   0  0  0
5  50   0   0   0   2  0  0
6 100   0   0   0   0  1  0

# Format of RF events:
# id amplitude mag_id phase_id time_shape_id delay freq phase
# ..        Hz   ....     ....          ....    us   Hz   rad
[RF]
1      999.988 1 2 3 0 5790.39 0
2      499.999 6 2 0 0 0 0

# Format of arbitrary gradients:
#   time_shape_id of 0 means default timing (stepping with grad_raster starting at 1/2 of grad_raster)
# id amplitude amp_shape_id time_shape_id delay
# ..      Hz/m       ..         ..          us
[GRADIENTS]
1  1.11167e+06 4 5 0
2  1.11167e+06 7 8 0

# Format of ADC events:
# id num dwell delay freq phase
# ..  ..    ns    us   Hz   rad
[ADC]
1 1 1000000 0 0 0

# Sequence Shapes
[SHAPES]

shape_id 1
num_samples 2000
3.57609951e-06
3.76007023e-06
3.95310781e-06
4.15563792e-06
4.36810512e-06
4.59097368e-06
4.82472833e-06
5.06987517e-06
5.32694248e-06
5.59648171e-06
5.87906836e-06
6.17530299e-06
6.48581224e-06
6.81124988e-06
7.15229789e-06
7.50966762e-06
7.88410094e-06
8.27637151e-06
8.68728597e-06
9.11768531e-06
9.56844621e-06
1.00404824e-05
1.05347463e-05
1.10522302e-05
1.15939681e-05
1.21610374e-05
1.27545601e-05
1.33757051e-05
1.40256896e-05
1.47057814e-05
1.54173001e-05
1.61616198e-05
1.69401708e-05
1.77544419e-05
1.86059824e-05
1.94964045e-05
2.04273856e-05
2.14006708e-05
2.24180755e-05
2.34814876e-05
2.45928707e-05
2.57542666e-05
2.6967798e-05
2.82356718e-05
2.95601821e-05
3.09437131e-05
3.23887424e-05
3.38978446e-05
3.54736947e-05
3.71190715e-05
3.88368612e-05
4.06300618e-05
4.25017862e-05
4.44552669e-05
4.64938597e-05
4.86210485e-05
5.08404492e-05
5.31558147e-05
5.55710391e-05
5.80901632e-05
6.0717379e-05
6.34570348e-05
6.6313641e-05
6.92918749e-05
7.23965868e-05
7.56328055e-05
7.90057444e-05
8.25208073e-05
8.61835952e-05
8.99999121e-05
9.39757724e-05
9.81174071e-05
0.000102431271
0.00010692405
0.000111602668
0.000116474297
0.000121546359
0.000126826543
0.000132322803
0.000138043375
0.000143996782
0.000150191843
0.000156637681
0.000163343735
0.000170319769
0.000177575881
0.000185122513
0.000192970461
0.000201130888
0.000209615334
0.000218435725
0.000227604385
0.000237134052
0.000247037885
0.000257329478
0.000268022871
0.000279132569
0.000290673547
0.000302661269
0.000315111698
0.000328041314
0.000341467127
0.000355406689
0.000369878114
0.000384900089
0.000400491893
0.000416673409
0.000433465146
0.000450888252
0.000468964531
0.000487716461
0.000507167214
0.000527340671
0.000548261442
0.000569954886
0.000592447127
0.000615765077
0.000639936454
0.000664989805
0.000690954523
0.000717860869
0.000745739997
0.000774623973
0.000804545795
0.000835539423
0.000867639793
0.000900882848
0.000935305556
0.000970945941
0.0010078431
0.00104603723
0.00108556966
0.00112648288
0.00116882053
0.00121262748
0.00125794983
0.00130483494
0.00135333145
0.00140348931
0.00145535983
0.00150899569
0.00156445097
0.00162178116
0.00168104325
0.00174229569
0.00180559847
0.00187101312
0.00193860277
0.00200843215
0.00208056764
0.00215507731
0.00223203093
0.00231150003
0.00239355791
0.00247827967
0.00256574227
0.00265602454
0.00274920724
0.00284537305
0.00294460665
0.00304699473
0.00315262604
0.00326159139
0.00337398376
0.00348989822
0.0036094321
0.00373268491
0.00385975844
0.00399075677
0.00412578634
0.00426495593
0.00440837674
0.00455616241
0.00470842905
0.0048652953
0.00502688233
0.0051933139
0.00536471638
0.00554121883
0.00572295294
0.00591005318
0.00610265674
0.00630090362
0.00650493663
0.00671490146
0.00693094667
0.00715322377
0.0073818872
0.0076170944
0.00785900584
0.00810778503
0.00836359855
0.0086266161
0.00889701054
0.00917495786
0.00946063727
0.00975423119
0.0100559253
0.0103659085
0.0106843731
0.0110115145
0.0113475318
0.0116926272
0.0120470063
0.0124108781
0.0127844551
0.0131679532
0.0135615918
0.0139655936
0.014380185
0.0148055957
0.015242059
0.0156898116
0.016149094
0.0166201498
0.0171032265
0.0175985748
0.0181064492
0.0186271076
0.0191608114
0.0197078255
0.0202684184
0.0208428619
0.0214314317
0.0220344064
0.0226520686
0.0232847039
0.0239326016
0.0245960543
0.025275358
0.0259708119
0.0266827187
0.0274113844
0.028157118
0.028920232
0.0297010419
0.0304998663
0.031317027
0.0321528488
0.0330076595
0.0338817896
0.0347755728
0.0356893455
0.0366234468
0.0375782184
0.0385540048
0.0395511529
0.0405700123
0.0416109346
0.0426742739
0.0437603867
0.0448696315
0.0460023686
0.0471589605
0.0483397716
0.049545168
0.0507755172
0.0520311885
0.0533125526
0.0546199813
0.0559538478
0.0573145264
0.058702392
0.0601178206
0.0615611889
0.0630328739
0.0645332532
0.0660627045
0.0676216057
0.0692103346
0.0708292689
0.0724787858
0.0741592619
0.0758710735
0.0776145955
0.0793902022
0.0811982666
0.0830391601
0.0849132527
0.0868209127
0.0887625063
0.0907383977
0.0927489486
0.0947945184
0.0968754636
0.0989921378
0.101144891
0.103334072
0.105560022
0.107823082
0.110123587
0.112461869
0.114838256
0.117253068
0.119706625
0.122199237
0.124731212
0.127302852
0.12991445
0.132566298
0.135258678
0.137991866
0.140766131
0.143581737
0.146438938
0.149337983
0.15227911
0.155262551
0.15828853
0.161357261
0.164468951
0.167623796
0.170821983
0.17406369
0.177349086
0.180678328
0.184051563
0.187468929
0.190930551
0.194436545
0.197987012
0.201582046
0.205221727
0.208906121
0.212635285
0.21640926
0.220228078
0.224091754
0.228000292
0.231953682
0.235951899
0.239994907
0.244082651
0.248215067
0.252392071
0.256613567
0.260879444
0.265189575
0.269543818
0.273942013
0.278383986
0.282869548
0.28739849
0.291970591
0.29658561
0.301243291
0.305943358
0.310685523
0.315469475
0.32029489
0.325161423
0.330068715
0.335016386
0.340004038
0.345031258
0.350097611
0.355202647
0.360345896
0.365526869
0.37074506
0.375999942
0.381290974
0.386617591
0.391979213
0.397375239
0.402805051
0.408268012
0.413763465
0.419290734
0.424849128
0.430437933
0.436056417
0.441703833
0.447379411
0.453082365
0.45881189
0.464567163
0.470347343
0.47615157
0.481978966
0.487828637
0.493699669
0.499591132
0.505502079
0.511431544
0.517378546
0.523342086
0.529321148
0.535314702
0.541321698
0.547341074
0.553371751
0.559412633
0.565462611
0.571520561
0.577585342
0.583655803
0.589730776
0.595809079
0.60188952
0.60797089
0.614051971
0.620131531
0.626208327
0.632281103
0.638348595
0.644409524
0.650462606
0.656506543
0.662540029
0.668561751
0.674570384
0.680564598
0.686543055
0.692504407
0.698447304
0.704370387
0.710272291
0.716151649
0.722007086
0.727837224
0.733640683
0.739416078
0.745162023
0.750877129
0.756560007
0.762209264
0.767823511
0.773401356
0.77894141
0.784442284
0.789902591
0.795320948
0.800695973
0.80602629
0.811310525
0.81654731
0.821735284
0.826873089
0.831959376
0.836992802
0.841972032
0.84689574
0.851762608
0.856571328
0.861320603
0.866009145
0.870635678
0.875198939
0.879697676
0.884130651
0.888496638
0.892794428
0.897022823
0.901180644
0.905266725
0.909279917
0.913219089
0.917083126
0.920870932
0.924581429
0.928213558
0.93176628
0.935238574
0.938629442
0.941937906
0.945163008
0.948303814
0.951359411
0.954328909
0.957211442
0.960006166
0.962712262
0.965328937
0.967855419
0.970290964
0.972634853
0.974886394
0.977044918
0.979109785
0.981080383
0.982956124
0.984736449
0.986420829
0.988008759
0.989499765
0.990893401
0.992189248
0.99338692
0.994486055
0.995486324
0.996387426
0.997189091
0.997891077
0.998493172
0.998995196
0.999396996
0.999698453
0.999899474
1
1
0.999899474
0.999698453
0.999396996
0.998995196
0.998493172
0.997891077
0.997189091
0.996387426
0.995486324
0.994486055
0.99338692
0.992189248
0.990893401
0.989499765
0.988008759
0.986420829
0.984736449
0.982956124
0.981080383
0.979109785
0.977044918
0.974886394
0.972634853
0.970290964
0.967855419
0.965328937
0.962712262
0.960006166
0.957211442
0.954328909
0.951359411
0.948303814
0.945163008
0.941937906
0.938629442
0.935238574
0.93176628
0.928213558
0.924581429
0.920870932
0.917083126
0.913219089
0.909279917
0.905266725
0.901180644
0.897022823
0.892794428
0.888496638
0.884130651
0.879697676
0.875198939
0.870635678
0.866009145
0.861320603
0.856571328
0.851762608
0.84689574
0.841972032
0.836992802
0.831959376
0.826873089
0.821735284
0.81654731
0.811310525
0.80602629
0.800695973
0.795320948
0.789902591
0.784442284
0.77894141
0.773401356
0.767823511
0.762209264
0.756560007
0.750877129
0.745162023
0.739416078
0.733640683
0.727837224
0.722007086
0.716151649
0.710272291
0.704370387
0.698447304
0.692504407
0.686543055
0.680564598
0.674570384
0.668561751
0.662540029
0.656506543
0.650462606
0.644409524
0.638348595
0.632281103
0.626208327
0.620131531
0.614051971
0.60797089
0.60188952
0.595809079
0.589730776
0.583655803
0.577585342
0.571520561
0.565462611
0.559412633
0.553371751
0.547341074
0.541321698
0.535314702
0.529321148
0.523342086
0.517378546
0.511431544
0.505502079
0.499591132
0.493699669
0.487828637
0.481978966
0.47615157
0.470347343
0.464567163
0.45881189
0.453082365
0.447379411
0.441703833
0.436056417
0.430437933
0.424849128
0.419290734
0.413763465
0.408268012
0.402805051
0.397375239
0.391979213
0.386617591
0.381290974
0.375999942
0.37074506
0.365526869
0.360345896
0.355202647
0.350097611
0.345031258
0.340004038
0.335016386
0.330068715
0.325161423
0.32029489
0.315469475
0.310685523
0.305943358
0.301243291
0.29658561
0.291970591
0.28739849
0.282869548
0.278383986
0.273942013
0.269543818
0.265189575
0.260879444
0.256613567
0.252392071
0.248215067
0.244082651
0.239994907
0.235951899
0.231953682
0.228000292
0.224091754
0.220228078
0.21640926
0.212635285
0.208906121
0.205221727
0.201582046
0.197987012
0.194436545
0.190930551
0.187468929
0.184051563
0.180678328
0.177349086
0.17406369
0.170821983
0.167623796
0.164468951
0.161357261
0.15828853
0.155262551
0.15227911
0.149337983
0.146438938
0.143581737
0.140766131
0.137991866
0.135258678
0.132566298
0.12991445
0.127302852
0.124731212
0.122199237
0.119706625
0.117253068
0.114838256
0.112461869
0.110123587
0.107823082
0.105560022
0.103334072
0.101144891
0.0989921378
0.0968754636
0.0947945184
0.0927489486
0.0907383977
0.0887625063
0.0868209127
0.0849132527
0.0830391601
0.0811982666
0.0793902022
0.0776145955
0.0758710735
0.0741592619
0.0724787858
0.0708292689
0.0692103346
0.0676216057
0.0660627045
0.0645332532
0.0630328739
0.0615611889
0.0601178206
0.058702392
0.0573145264
0.0559538478
0.0546199813
0.0533125526
0.0520311885
0.0507755172
0.049545168
0.0483397716
0.0471589605
0.0460023686
0.0448696315
0.0437603867
0.0426742739
0.0416109346
0.0405700123
0.0395511529
0.0385540048
0.0375782184
0.0366234468
0.0356893455
0.0347755728
0.0338817896
0.0330076595
0.0321528488
0.031317027
0.0304998663
0.0297010419
0.028920232
0.028157118
0.0274113844
0.0266827187
0.0259708119
0.025275358
0.0245960543
0.0239326016
0.0232847039
0.0226520686
0.0220344064
0.0214314317
0.0208428619
0.0202684184
0.0197078255
0.0191608114
0.0186271076
0.0181064492
0.0175985748
0.0171032265
0.0166201498
0.016149094
0.0156898116
0.015242059
0.0148055957
0.014380185
0.0139655936
0.0135615918
0.0131679532
0.0127844551
0.0124108781
0.0120470063
0.0116926272
0.0113475318
0.0110115145
0.0106843731
0.0103659085
0.0100559253
0.00975423119
0.00946063727
0.00917495786
0.00889701054
0.0086266161
0.00836359855
0.00810778503
0.00785900584
0.0076170944
0.0073818872
0.00715322377
0.00693094667
0.00671490146
0.00650493663
0.00630090362
0.00610265674
0.00591005318
0.00572295294
0.00554121883
0.00536471638
0.0051933139
0.00502688233
0.0048652953
0.00470842905
0.00455616241
0.00440837674
0.00426495593
0.00412578634
0.00399075677
0.00385975844
0.00373268491
0.0036094321
0.00348989822
0.00337398376
0.00326159139
0.00315262604
0.00304699473
0.00294460665
0.00284537305
0.00274920724
0.00265602454
0.00256574227
0.00247827967
0.00239355791
0.00231150003
0.00223203093
0.00215507731
0.00208056764
0.00200843215
0.00193860277
0.00187101312
0.00180559847
0.00174229569
0.00168104325
0.00162178116
0.00156445097
0.00150899569
0.00145535983
0.00140348931
0.00135333145
0.00130483494
0.00125794983
0.00121262748
0.00116882053
0.00112648288
0.00108556966
0.00104603723
0.0010078431
0.000970945941
0.000935305556
0.000900882848
0.000867639793
0.000835539423
0.000804545795
0.000774623973
0.000745739997
0.000717860869
0.000690954523
0.000664989805
0.000639936454
0.000615765077
0.000592447127
0.000569954886
0.000548261442
0.000527340671
0.000507167214
0.000487716461
0.000468964531
0.000450888252
0.000433465146
0.000416673409
0.000400491893
0.000384900089
0.000369878114
0.000355406689
0.000341467127
0.000328041314
0.000315111698
0.000302661269
0.000290673547
0.000279132569
0.000268022871
0.000257329478
0.000247037885
0.000237134052
0.000227604385
0.000218435725
0.000209615334
0.000201130888
0.000192970461
0.000185122513
0.000177575881
0.000170319769
0.000163343735
0.000156637681
0.000150191843
0.000143996782
0.000138043375
0.000132322803
0.000126826543
0.000121546359
0.000116474297
0.000111602668
0.00010692405
0.000102431271
9.81174071e-05
9.39757724e-05
8.99999121e-05
8.61835952e-05
8.25208073e-05
7.90057444e-05
7.56328055e-05
7.23965868e-05
6.92918749e-05
6.6313641e-05
6.34570348e-05
6.0717379e-05
5.80901632e-05
5.55710391e-05
5.31558147e-05
5.08404492e-05
4.86210485e-05
4.64938597e-05
4.44552669e-05
4.25017862e-05
4.06300618e-05
3.88368612e-05
3.71190715e-05
3.54736947e-05
3.38978446e-05
3.23887424e-05
3.09437131e-05
2.95601821e-05
2.82356718e-05
2.6967798e-05
2.57542666e-05
2.45928707e-05
2.34814876e-05
2.24180755e-05
2.14006708e-05
2.04273856e-05
1.94964045e-05
1.86059824e-05
1.77544419e-05
1.69401708e-05
1.61616198e-05
1.54173001e-05
1.47057814e-05
1.40256896e-05
1.33757051e-05
1.27545601e-05
1.21610374e-05
1.15939681e-05
1.10522302e-05
1.05347463e-05
1.00404824e-05
9.56844621e-06
9.11768531e-06
8.68728597e-06
8.27637151e-06
7.88410094e-06
7.50966762e-06
7.15229789e-06
6.81124988e-06
6.48581224e-06
6.17530299e-06
5.87906836e-06
5.59648171e-06
5.32694248e-06
5.06987517e-06
4.82472833e-06
4.59097368e-06
4.36810512e-06
4.15563792e-06
3.95310781e-06
3.76007023e-06
3.57609951e-06
3.57609951e-06
3.76007023e-06
3.95310781e-06
4.15563792e-06
4.36810512e-06
4.59097368e-06
4.82472833e-06
5.06987517e-06
5.32694248e-06
5.59648171e-06
5.87906836e-06
6.17530299e-06
6.48581224e-06
6.81124988e-06
7.15229789e-06
7.50966762e-06
7.88410094e-06
8.27637151e-06
8.68728597e-06
9.11768531e-06
9.56844621e-06
1.00404824e-05
1.05347463e-05
1.10522302e-05
1.15939681e-05
1.21610374e-05
1.27545601e-05
1.33757051e-05
1.40256896e-05
1.47057814e-05
1.54173001e-05
1.61616198e-05
1.69401708e-05
1.77544419e-05
1.86059824e-05
1.94964045e-05
2.04273856e-05
2.14006708e-05
2.24180755e-05
2.34814876e-05
2.45928707e-05
2.57542666e-05
2.6967798e-05
2.82356718e-05
2.95601821e-05
3.09437131e-05
3.23887424e-05
3.38978446e-05
3.54736947e-05
3.71190715e-05
3.88368612e-05
4.06300618e-05
4.25017862e-05
4.44552669e-05
4.64938597e-05
4.86210485e-05
5.08404492e-05
5.31558147e-05
5.55710391e-05
5.80901632e-05
6.0717379e-05
6.34570348e-05
6.6313641e-05
6.92918749e-05
7.23965868e-05
7.56328055e-05
7.90057444e-05
8.25208073e-05
8.61835952e-05
8.99999121e-05
9.39757724e-05
9.81174071e-05
0.000102431271
0.00010692405
0.000111602668
0.000116474297
0.000121546359
0.000126826543
0.000132322803
0.000138043375
0.000143996782
0.000150191843
0.000156637681
0.000163343735
0.000170319769
0.000177575881
0.000185122513
0.000192970461
0.000201130888
0.000209615334
0.000218435725
0.000227604385
0.000237134052
0.000247037885
0.000257329478
0.000268022871
0.000279132569
0.000290673547
0.000302661269
0.000315111698
0.000328041314
0.000341467127
0.000355406689
0.000369878114
0.000384900089
0.000400491893
0.000416673409
0.000433465146
0.000450888252
0.000468964531
0.000487716461
0.000507167214
0.000527340671
0.000548261442
0.000569954886
0.000592447127
0.000615765077
0.000639936454
0.000664989805
0.000690954523
0.000717860869
0.000745739997
0.000774623973
0.000804545795
0.000835539423
0.000867639793
0.000900882848
0.000935305556
0.000970945941
0.0010078431
0.00104603723
0.00108556966
0.00112648288
0.00116882053
0.00121262748
0.00125794983
0.00130483494
0.00135333145
0.00140348931
0.00145535983
0.00150899569
0.00156445097
0.00162178116
0.00168104325
0.00174229569
0.00180559847
0.00187101312
0.00193860277
0.00200843215
0.00208056764
0.00215507731
0.00223203093
0.00231150003
0.00239355791
0.00247827967
0.00256574227
0.00265602454
0.00274920724
0.00284537305
0.00294460665
0.00304699473
0.00315262604
0.00326159139
0.00337398376
0.00348989822
0.0036094321
0.00373268491
0.00385975844
0.00399075677
0.00412578634
0.00426495593
0.00440837674
0.00455616241
0.00470842905
0.0048652953
0.00502688233
0.0051933139
0.00536471638
0.00554121883
0.00572295294
0.00591005318
0.00610265674
0.00630090362
0.00650493663
0.00671490146
0.00693094667
0.00715322377
0.0073818872
0.0076170944
0.00785900584
0.00810778503
0.00836359855
0.0086266161
0.00889701054
0.00917495786
0.00946063727
0.00975423119
0.0100559253
0.0103659085
0.0106843731
0.0110115145
0.0113475318
0.0116926272
0.0120470063
0.0124108781
0.0127844551
0.0131679532
0.0135615918
0.0139655936
0.014380185
0.0148055957
0.015242059
0.0156898116
0.016149094
0.0166201498
0.0171032265
0.0175985748
0.0181064492
0.0186271076
0.0191608114
0.0197078255
0.0202684184
0.0208428619
0.0214314317
0.0220344064
0.0226520686
0.0232847039
0.0239326016
0.0245960543
0.025275358
0.0259708119
0.0266827187
0.0274113844
0.028157118
0.028920232
0.0297010419
0.0304998663
0.031317027
0.0321528488
0.0330076595
0.0338817896
0.0347755728
0.0356893455
0.0366234468
0.0375782184
0.0385540048
0.0395511529
0.0405700123
0.0416109346
0.0426742739
0.0437603867
0.0448696315
0.0460023686
0.0471589605
0.0483397716
0.049545168
0.0507755172
0.0520311885
0.0533125526
0.0546199813
0.0559538478
0.0573145264
0.058702392
0.0601178206
0.0615611889
0.0630328739
0.0645332532
0.0660627045
0.0676216057
0.0692103346
0.0708292689
0.0724787858
0.0741592619
0.0758710735
0.0776145955
0.0793902022
0.0811982666
0.0830391601
0.0849132527
0.0868209127
0.0887625063
0.0907383977
0.0927489486
0.0947945184
0.0968754636
0.0989921378
0.101144891
0.103334072
0.105560022
0.107823082
0.110123587
0.112461869
0.114838256
0.117253068
0.119706625
0.122199237
0.124731212
0.127302852
0.12991445
0.132566298
0.135258678
0.137991866
0.140766131
0.143581737
0.146438938
0.149337983
0.15227911
0.155262551
0.15828853
0.161357261
0.164468951
0.167623796
0.170821983
0.17406369
0.177349086
0.180678328
0.184051563
0.187468929
0.190930551
0.194436545
0.197987012
0.201582046
0.205221727
0.208906121
0.212635285
0.21640926
0.220228078
0.224091754
0.228000292
0.231953682
0.235951899
0.239994907
0.244082651
0.248215067
0.252392071
0.256613567
0.260879444
0.265189575
0.269543818
0.273942013
0.278383986
0.282869548
0.28739849
0.291970591
0.29658561
0.301243291
0.305943358
0.310685523
0.315469475
0.32029489
0.325161423
0.330068715
0.335016386
0.340004038
0.345031258
0.350097611
0.355202647
0.360345896
0.365526869
0.37074506
0.375999942
0.381290974
0.386617591
0.391979213
0.397375239
0.402805051
0.408268012
0.413763465
0.419290734
0.424849128
0.430437933
0.436056417
0.441703833
0.447379411
0.453082365
0.45881189
0.464567163
0.470347343
0.47615157
0.481978966
0.487828637
0.493699669
0.499591132
0.505502079
0.511431544
0.517378546
0.523342086
0.529321148
0.535314702
0.541321698
0.547341074
0.553371751
0.559412633
0.565462611
0.571520561
0.577585342
0.583655803
0.589730776
0.595809079
0.60188952
0.60797089
0.614051971
0.620131531
0.626208327
0.632281103
0.638348595
0.644409524
0.650462606
0.656506543
0.662540029
0.668561751
0.674570384
0.680564598
0.686543055
0.692504407
0.698447304
0.704370387
0.710272291
0.716151649
0.722007086
0.727837224
0.733640683
0.739416078
0.745162023
0.750877129
0.756560007
0.762209264
0.767823511
0.773401356
0.77894141
0.784442284
0.789902591
0.795320948
0.800695973
0.80602629
0.811310525
0.81654731
0.821735284
0.826873089
0.831959376
0.836992802
0.841972032
0.84689574
0.851762608
0.856571328
0.861320603
0.866009145
0.870635678
0.875198939
0.879697676
0.884130651
0.888496638
0.892794428
0.897022823
0.901180644
0.905266725
0.909279917
0.913219089
0.917083126
0.920870932
0.924581429
0.928213558
0.93176628
0.935238574
0.938629442
0.941937906
0.945163008
0.948303814
0.951359411
0.954328909
0.957211442
0.960006166
0.962712262
0.965328937
0.967855419
0.970290964
0.972634853
0.974886394
0.977044918
0.979109785
0.981080383
0.982956124
0.984736449
0.986420829
0.988008759
0.989499765
0.990893401
0.992189248
0.99338692
0.994486055
0.995486324
0.996387426
0.997189091
0.997891077
0.998493172
0.998995196
0.999396996
0.999698453
0.999899474
1
1
0.999899474
0.999698453
0.999396996
0.998995196
0.998493172
0.997891077
0.997189091
0.996387426
0.995486324
0.994486055
0.99338692
0.992189248
0.990893401
0.989499765
0.988008759
0.986420829
0.984736449
0.982956124
0.981080383
0.979109785
0.977044918
0.974886394
0.972634853
0.970290964
0.967855419
0.965328937
0.962712262
0.960006166
0.957211442
0.954328909
0.951359411
0.948303814
0.945163008
0.941937906
0.938629442
0.935238574
0.93176628
0.928213558
0.924581429
0.920870932
0.917083126
0.913219089
0.909279917
0.905266725
0.901180644
0.897022823
0.892794428
0.888496638
0.884130651
0.879697676
0.875198939
0.870635678
0.866009145
0.861320603
0.856571328
0.851762608
0.84689574
0.841972032
0.836992802
0.831959376
0.826873089
0.821735284
0.81654731
0.811310525
0.80602629
0.800695973
0.795320948
0.789902591
0.784442284
0.77894141
0.773401356
0.767823511
0.762209264
0.756560007
0.750877129
0.745162023
0.739416078
0.733640683
0.727837224
0.722007086
0.716151649
0.710272291
0.704370387
0.698447304
0.692504407
0.686543055
0.680564598
0.674570384
0.668561751
0.662540029
0.656506543
0.650462606
0.644409524
0.638348595
0.632281103
0.626208327
0.620131531
0.614051971
0.60797089
0.60188952
0.595809079
0.589730776
0.583655803
0.577585342
0.571520561
0.565462611
0.559412633
0.553371751
0.547341074
0.541321698
0.535314702
0.529321148
0.523342086
0.517378546
0.511431544
0.505502079
0.499591132
0.493699669
0.487828637
0.481978966
0.47615157
0.470347343
0.464567163
0.45881189
0.453082365
0.447379411
0.441703833
0.436056417
0.430437933
0.424849128
0.419290734
0.413763465
0.408268012
0.402805051
0.397375239
0.391979213
0.386617591
0.381290974
0.375999942
0.37074506
0.365526869
0.360345896
0.355202647
0.350097611
0.345031258
0.340004038
0.335016386
0.330068715
0.325161423
0.32029489
0.315469475
0.310685523
0.305943358
0.301243291
0.29658561
0.291970591
0.28739849
0.282869548
0.278383986
0.273942013
0.269543818
0.265189575
0.260879444
0.256613567
0.252392071
0.248215067
0.244082651
0.239994907
0.235951899
0.231953682
0.228000292
0.224091754
0.220228078
0.21640926
0.212635285
0.208906121
0.205221727
0.201582046
0.197987012
0.194436545
0.190930551
0.187468929
0.184051563
0.180678328
0.177349086
0.17406369
0.170821983
0.167623796
0.164468951
0.161357261
0.15828853
0.155262551
0.15227911
0.149337983
0.146438938
0.143581737
0.140766131
0.137991866
0.135258678
0.132566298
0.12991445
0.127302852
0.124731212
0.122199237
0.119706625
0.117253068
0.114838256
0.112461869
0.110123587
0.107823082
0.105560022
0.103334072
0.101144891
0.0989921378
0.0968754636
0.0947945184
0.0927489486
0.0907383977
0.0887625063
0.0868209127
0.0849132527
0.0830391601
0.0811982666
0.0793902022
0.0776145955
0.0758710735
0.0741592619
0.0724787858
0.0708292689
0.0692103346
0.0676216057
0.0660627045
0.0645332532
0.0630328739
0.0615611889
0.0601178206
0.058702392
0.0573145264
0.0559538478
0.0546199813
0.0533125526
0.0520311885
0.0507755172
0.049545168
0.0483397716
0.0471589605
0.0460023686
0.0448696315
0.0437603867
0.0426742739
0.0416109346
0.0405700123
0.0395511529
0.0385540048
0.0375782184
0.0366234468
0.0356893455
0.0347755728
0.0338817896
0.0330076595
0.0321528488
0.031317027
0.0304998663
0.0297010419
0.028920232
0.028157118
0.0274113844
0.0266827187
0.0259708119
0.025275358
0.0245960543
0.0239326016
0.0232847039
0.0226520686
0.0220344064
0.0214314317
0.0208428619
0.0202684184
0.0197078255
0.0191608114
0.0186271076
0.0181064492
0.0175985748
0.0171032265
0.0166201498
0.016149094
0.0156898116
0.015242059
0.0148055957
0.014380185
0.0139655936
0.0135615918
0.0131679532
0.0127844551
0.0124108781
0.0120470063
0.0116926272
0.0113475318
0.0110115145
0.0106843731
0.0103659085
0.0100559253
0.00975423119
0.00946063727
0.00917495786
0.00889701054
0.0086266161
0.00836359855
0.00810778503
0.00785900584
0.0076170944
0.0073818872
0.00715322377
0.00693094667
0.00671490146
0.00650493663
0.00630090362
0.00610265674
0.00591005318
0.00572295294
0.00554121883
0.00536471638
0.0051933139
0.00502688233
0.0048652953
0.00470842905
0.00455616241
0.00440837674
0.00426495593
0.00412578634
0.00399075677
0.00385975844
0.00373268491
0.0036094321
0.00348989822
0.00337398376
0.00326159139
0.00315262604
0.00304699473
0.00294460665
0.00284537305
0.00274920724
0.00265602454
0.00256574227
0.00247827967
0.00239355791
0.00231150003
0.00223203093
0.00215507731
0.00208056764
0.00200843215
0.00193860277
0.00187101312
0.00180559847
0.00174229569
0.00168104325
0.00162178116
0.00156445097
0.00150899569
0.00145535983
0.00140348931
0.00135333145
0.00130483494
0.00125794983
0.00121262748
0.00116882053
0.00112648288
0.00108556966
0.00104603723
0.0010078431
0.000970945941
0.000935305556
0.000900882848
0.000867639793
0.000835539423
0.000804545795
0.000774623973
0.000745739997
0.000717860869
0.000690954523
0.000664989805
0.000639936454
0.000615765077
0.000592447127
0.000569954886
0.000548261442
0.000527340671
0.000507167214
0.000487716461
0.000468964531
0.000450888252
0.000433465146
0.000416673409
0.000400491893
0.000384900089
0.000369878114
0.000355406689
0.000341467127
0.000328041314
0.000315111698
0.000302661269
0.000290673547
0.000279132569
0.000268022871
0.000257329478
0.000247037885
0.000237134052
0.000227604385
0.000218435725
0.000209615334
0.000201130888
0.000192970461
0.000185122513
0.000177575881
0.000170319769
0.000163343735
0.000156637681
0.000150191843
0.000143996782
0.000138043375
0.000132322803
0.000126826543
0.000121546359
0.000116474297
0.000111602668
0.00010692405
0.000102431271
9.81174071e-05
9.39757724e-05
8.99999121e-05
8.61835952e-05
8.25208073e-05
7.90057444e-05
7.56328055e-05
7.23965868e-05
6.92918749e-05
6.6313641e-05
6.34570348e-05
6.0717379e-05
5.80901632e-05
5.55710391e-05
5.31558147e-05
5.08404492e-05
4.86210485e-05
4.64938597e-05
4.44552669e-05
4.25017862e-05
4.06300618e-05
3.88368612e-05
3.71190715e-05
3.54736947e-05
3.38978446e-05
3.23887424e-05
3.09437131e-05
2.95601821e-05
2.82356718e-05
2.6967798e-05
2.57542666e-05
2.45928707e-05
2.34814876e-05
2.24180755e-05
2.14006708e-05
2.04273856e-05
1.94964045e-05
1.86059824e-05
1.77544419e-05
1.69401708e-05
1.61616198e-05
1.54173001e-05
1.47057814e-05
1.40256896e-05
1.33757051e-05
1.27545601e-05
1.21610374e-05
1.15939681e-05
1.10522302e-05
1.05347463e-05
1.00404824e-05
9.56844621e-06
9.11768531e-06
8.68728597e-06
8.27637151e-06
7.88410094e-06
7.50966762e-06
7.15229789e-06
6.81124988e-06
6.48581224e-06
6.17530299e-06
5.87906836e-06
5.59648171e-06
5.32694248e-06
5.06987517e-06
4.82472833e-06
4.59097368e-06
4.36810512e-06
4.15563792e-06
3.95310781e-06
3.76007023e-06
3.57609951e-06

shape_id 2
num_samples 2000
0
0
1998

shape_id 3
num_samples 2000
0.5
1
1
997
1.5
1
1
997

shape_id 4
num_samples 2000
0
0
749
0.0199997
0.0199996
0.0200006
0.0199996
0.0199997
0.0200005
0.0199997
0.0200006
0.0199996
0.0199997
0.0200005
0.0199997
0.0200006
0.0199996
0.0199997
0.0200005
0.0199997
0.0200005
0.0199997
0.0199997
0
0.0200005
0.0199997
0.0200005
0.0199997
0.0199997
0
0.0200005
0.0199997
0.0200005
0.0199997
0.0199996
0.0200006
0.0199997
0.0200005
0.0199997
0.0199996
0.0200006
0.0199996
0.0200006
0.0199997
0.0199996
0.0200006
0.0199996
0.0200006
0.0199997
0.0199996
0.0200006
0.0199996
0.0200006
0.0199996
0.0199997
0
0
398
-0.0204081
-0.020408
-0.0204081
-0.020408
-0.0204081
-0.0204089
-0.0204081
-0.020408
-0.0204081
-0.020408
-0.0204081
-0.020408
-0.020409
-0.020408
-0.0204081
-0.020408
-0.0204081
-0.0204081
0
-0.020408
-0.0204081
-0.0204089
-0.0204081
-0.020408
-0.0204081
-0.020408
-0.0204081
-0.020408
-0.020409
-0.020408
-0.0204081
-0.020408
-0.0204081
-0.0204081
0
-0.020408
-0.020409
-0.020408
-0.0204081
-0.020408
-0.0204081
-0.020408
-0.0204081
-0.0204089
-0.0204081
-0.020408
-0.0204081
-0.020408
-0.0204081
-0.020408
-0.0204081
0
0
748

shape_id 5
num_samples 2000
0.05
0.1
0.1
1997

shape_id 6
num_samples 2000
3.5e-06
1e-07
1e-07
9
2e-07
1e-07
1e-07
1
2e-07
1e-07
1e-07
0
2e-07
1e-07
2e-07
1e-07
2e-07
1e-07
2e-07
1e-07
2e-07
2e-07
0
1e-07
2e-07
2e-07
8
3e-07
2e-07
2e-07
0
3e-07
2e-07
3e-07
2e-07
3e-07
3e-07
0
2e-07
3e-07
3e-07
4
4e-07
3e-07
3e-07
0
4e-07
3e-07
4e-07
4e-07
1
3e-07
4e-07
4e-07
0
5e-07
4e-07
4e-07
0
5e-07
4e-07
5e-07
5e-07
5
6e-07
5e-07
6e-07
6e-07
4
7e-07
6e-07
7e-07
7e-07
2
8e-07
7e-07
8e-07
8e-07
3
9e-07
9e-07
3
1e-06
1e-06
3
1.1e-06
1.1e-06
2
1.2e-06
1.1e-06
1.3e-06
1.2e-06
1.2e-06
0
1.3e-06
1.3e-06
0
1.4e-06
1.4e-06
3
1.5e-06
1.6e-06
1.5e-06
1.6e-06
1.6e-06
0
1.7e-06
1.6e-06
1.8e-06
1.7e-06
1.8e-06
1.9e-06
1.8e-06
1.9e-06
2e-06
2e-06
1
2.1e-06
2.1e-06
1
2.2e-06
2.3e-06
2.3e-06
1
2.4e-06
2.4e-06
0
2.5e-06
2.6e-06
2.5e-06
2.7e-06
2.7e-06
1
2.8e-06
2.9e-06
2.9e-06
0
3e-06
3e-06
0
3.1e-06
3.2e-06
3.2e-06
0
3.3e-06
3.3e-06
0
3.5e-06
3.4e-06
3.6e-06
3.6e-06
0
3.7e-06
3.8e-06
3.9e-06
3.9e-06
0
4e-06
4.1e-06
4.1e-06
0
4.3e-06
4.3e-06
0
4.4e-06
4.5e-06
4.6e-06
4.7e-06
4.7e-06
0
4.9e-06
4.9e-06
0
5.1e-06
5.1e-06
0
5.3e-06
5.3e-06
0
5.5e-06
5.5e-06
0
5.7e-06
5.7e-06
0
5.9e-06
6e-06
6.1e-06
6.3e-06
6.3e-06
0
6.5e-06
6.5e-06
0
