# Pulseq sequence file
# Created by PyPulseq

# Created for Pulseq-CEST
# https://pulseq-cest.github.io/
# Created by: DANIEL MIKSCH
# Created at: 28-Apr-2025 14:42:45

[VERSION]
major 1
minor 4
revision 2

[DEFINITIONS]
AdcRasterTime 1e-07 
B0 17 
BlockDurationRaster 1e-05 
FREQ 723.7988 
GradientRasterTime 1e-06 
M0_offset 0.0 
RadiofrequencyRasterTime 1e-06 
TotalDuration 0.016 
flip_angle_180_deg 180 
flip_angle_90_deg 90 
num_meas 1 
offsets_ppm 0 
seq_id_string SE_opt_163_8 

# Format of blocks:
# NUM DUR RF  GX  GY  GZ  ADC  EXT
[BLOCKS]
1 100   0   0   0   0  0  0
2 200   1   0   0   0  0  0
3 1000   0   0   0   0  0  0
4 200   2   0   0   0  0  0
5 100   0   0   0   0  1  0

# Format of RF events:
# id amplitude mag_id phase_id time_shape_id delay freq phase
# ..        Hz   ....     ....          ....    us   Hz   rad
[RF]
1      710.885 1 2 3 0 0 0
2      305.429 4 2 3 0 0 0

# Format of ADC events:
# id num dwell delay freq phase
# ..  ..    ns    us   Hz   rad
[ADC]
1 1 1000000 0 0 0

# Sequence Shapes
[SHAPES]

shape_id 1
num_samples 286
0.00151126439
0.0163864893
0.0307673254
0.0444124888
0.0571158037
0.0687191017
0.0791190829
0.0882677319
0.0961667088
0.102858544
0.108417494
0.112941018
0.116542133
0.119342309
0.121465007
0.123029883
0.124148042
0.124918559
0.125426344
0.125741293
0.125918622
0.126000062
0.126015613
0.125985581
0.12592266
0.125833858
0.125722131
0.125587728
0.125429289
0.125244755
0.1250322
0.124790667
0.124521151
0.124227796
0.123919364
0.123611044
0.123326615
0.123101048
0.122983529
0.123041097
0.1233628
0.124063936
0.125289721
0.127216571
0.130049074
0.134009854
0.139321438
0.146181426
0.154736238
0.165064533
0.177167751
0.190964371
0.206285665
0.22285026
0.239544126
0.256523112
0.273361601
0.290051369
0.306589604
0.323007143
0.339291434
0.355427418
0.371406445
0.387223018
0.402863247
0.418321442
0.433597354
0.448684944
0.463579473
0.478278072
0.492774174
0.507063761
0.521147879
0.535016065
0.548671527
0.562115602
0.575337278
0.58833596
0.601116989
0.613690912
0.626045015
0.63817842
0.650100682
0.661819917
0.673338845
0.684649443
0.695738002
0.706613499
0.717279549
0.727738814
0.738000907
0.748067937
0.757929671
0.76758075
0.777033608
0.786281846
0.795333852
0.804189666
0.812850117
0.82131517
0.829586008
0.837662525
0.845546029
0.853236204
0.860733747
0.868038513
0.875150749
0.88207003
0.888795719
0.895327442
0.901663818
0.907805775
0.913753275
0.919499835
0.925043743
0.930388156
0.935533244
0.940476454
0.945217481
0.949760813
0.954107972
0.958260321
0.962218303
0.965980826
0.9695457
0.972914007
0.976084459
0.979056126
0.981829872
0.984406312
0.986785983
0.988969183
0.990955993
0.992746815
0.994342041
0.995741603
0.996945759
0.997953303
0.998761383
0.999369529
0.999778517
0.999989652
1
0.999815036
0.999432186
0.998851821
0.998076095
0.997106629
0.995943864
0.994587666
0.993039175
0.991298876
0.989367195
0.987244787
0.984932374
0.982430535
0.979740075
0.976861695
0.97379631
0.97054504
0.967109005
0.963489907
0.9596893
0.955706831
0.951543942
0.947204635
0.942690721
0.938004592
0.933150658
0.928131328
0.922950563
0.917610245
0.91211534
0.90646814
0.900668492
0.894709306
0.888595893
0.882323622
0.875887546
0.869280956
0.862501683
0.855546516
0.848414729
0.841103529
0.833612987
0.825941011
0.818087271
0.810052589
0.80183791
0.79344306
0.784868337
0.776110222
0.767163714
0.758021332
0.748685859
0.739155919
0.72942856
0.719500869
0.709370542
0.699034785
0.688490942
0.677738046
0.666774824
0.655597913
0.644207076
0.632604392
0.620788329
0.608758718
0.596511317
0.584041177
0.571350984
0.558442522
0.545315993
0.531968625
0.51840298
0.504619126
0.490618458
0.476404177
0.461977768
0.447341129
0.4324977
0.417451303
0.402205742
0.386765316
0.371133216
0.35531172
0.339297774
0.323097261
0.306712077
0.290157649
0.273419853
0.256526786
0.239490941
0.22234421
0.205878576
0.190682921
0.177000812
0.164994752
0.154749121
0.146267559
0.139474394
0.134223679
0.130316173
0.127526865
0.125631743
0.124426089
0.123734631
0.12341393
0.123350639
0.123457553
0.123669196
0.123937716
0.124229229
0.124520804
0.124797914
0.125052253
0.125279962
0.125480139
0.125653605
0.125801838
0.125925965
0.126025726
0.12609826
0.126136706
0.126128527
0.12605357
0.125881974
0.125572125
0.12506891
0.12430251
0.123188071
0.121626556
0.119506865
0.116709331
0.113110479
0.108588745
0.10303096
0.0963393416
0.088439084
0.0792866616
0.0688791126
0.0572628431
0.0445393688
0.0308651314
0.0164446774
0.00151778143

shape_id 2
num_samples 286
0
0
284

shape_id 3
num_samples 286
3.4965035
6.993007
6.993007
4
6.9930069
6.993007
6.993007
11
6.9930069
6.993007
6.993007
12
6.9930069
6.993007
6.993007
11
6.9930069
6.993007
6.993007
11
6.9930069
6.993007
6.993007
12
6.9930069
6.993007
6.993007
11
6.9930069
6.993007
6.993007
11
6.9930069
6.993007
6.993007
12
6.9930069
6.993007
6.993007
11
6.9930069
6.993007
6.993007
11
6.9930069
6.993007
6.993007
11
6.9930069
6.993007
6.993007
12
6.9930069
6.993007
6.993007
11
6.9930069
6.993007
6.993007
11
6.9930069
6.993007
6.993007
12
6.9930069
6.993007
6.993007
11
6.9930069
6.993007
6.993007
11
6.9930069
6.993007
6.993007
12
6.9930069
6.993007
6.993007
11
6.9930069
6.993007
6.993007
4

shape_id 4
num_samples 286
0.00273059499
0.0297769699
0.0565628502
0.0830558414
0.109236266
0.135026055
0.160395175
0.185491509
0.210155136
0.234305952
0.257913191
0.280935074
0.303415221
0.325296733
0.346605248
0.367256458
0.38724042
0.40659294
0.425477838
0.443885926
0.461621188
0.478931804
0.49584908
0.51235369
0.52815309
0.543209716
0.557556837
0.571219781
0.58421301
0.596605064
0.608471891
0.619801084
0.630666216
0.641144495
0.651175285
0.660772224
0.66995702
0.678746239
0.687192083
0.695322295
0.703148309
0.710700038
0.718006744
0.725094567
0.731988353
0.738653637
0.745051521
0.751288837
0.757324992
0.763114656
0.768816727
0.774463774
0.780056922
0.785601894
0.79110637
0.796399576
0.801533016
0.80654822
0.811431001
0.816299373
0.821047951
0.825566105
0.830059193
0.834541287
0.838934093
0.843226068
0.847498771
0.851797729
0.856131998
0.86050778
0.864918637
0.869348883
0.873780548
0.878213324
0.882657023
0.887094706
0.891518288
0.8959105
0.900160079
0.904341902
0.908408343
0.912373516
0.916268391
0.920137351
0.924004152
0.927593469
0.93097198
0.93407876
0.936988109
0.939848371
0.942791243
0.945648711
0.948306447
0.950808604
0.953024153
0.955146655
0.95725437
0.959206513
0.960875871
0.962518178
0.964186055
0.965889354
0.967466258
0.968796743
0.970122459
0.971524467
0.972899752
0.974073622
0.975116814
0.976090091
0.977085399
0.978188825
0.979267146
0.980092462
0.980818601
0.981438669
0.981936704
0.98235235
0.98275656
0.983098668
0.983363802
0.983553748
0.983737138
0.983711532
0.983436532
0.983098202
0.982750636
0.98238305
0.981864236
0.981121818
0.980297741
0.979524077
0.978759592
0.978053326
0.977230371
0.976177587
0.974898026
0.973523258
0.972371451
0.97154063
0.971083828
0.971020824
0.971367943
0.972114112
0.972842506
0.973572797
0.974693328
0.976153132
0.97785017
0.979500277
0.980947604
0.982441136
0.984047669
0.985588123
0.987033238
0.98843896
0.989795023
0.991121384
0.992431747
0.993666784
0.994760867
0.995791961
0.996626196
0.997345006
0.998021072
0.998653515
0.99914928
0.99950245
0.999785577
0.999998574
1
0.999777335
0.99928568
0.998682313
0.998011728
0.997160287
0.996182285
0.995100503
0.993875115
0.99251713
0.990968786
0.989115109
0.987094999
0.984929822
0.982627992
0.980178622
0.97753523
0.974630523
0.971557185
0.96836249
0.965070904
0.961582697
0.957856039
0.953925731
0.949872697
0.945648021
0.941194392
0.936678036
0.932112282
0.927518074
0.922896978
0.918251755
0.913548153
0.908798757
0.904021785
0.899338254
0.89468362
0.889836668
0.884913213
0.87984712
0.874754099
0.869519449
0.864235537
0.859059444
0.853965593
0.848820061
0.843674076
0.838654671
0.833784411
0.828814526
0.823820467
0.818909718
0.813838977
0.808791321
0.803878131
0.799080161
0.794392595
0.789805888
0.785202317
0.780411377
0.775583392
0.770722175
0.765685225
0.760562537
0.755336646
0.749931322
0.744425741
0.738817861
0.733084826
0.727192355
0.721091804
0.714790514
0.708275188
0.701520889
0.694501764
0.687191201
0.679573012
0.671701818
0.663516172
0.654918752
0.645886025
0.636434492
0.626694495
0.616530858
0.605814599
0.594518365
0.582588577
0.570160943
0.557402143
0.544045084
0.52999175
0.515188649
0.49963879
0.483521066
0.467060548
0.450193573
0.432918455
0.414937175
0.396567395
0.37768278
0.358022754
0.337612373
0.316592284
0.295294448
0.27345836
0.250945431
0.227798683
0.204048306
0.179777905
0.155117434
0.130232872
0.10518957
0.0798751588
0.0543193424
0.028565595
0.00261227365


[SIGNATURE]
# This is the hash of the Pulseq file, calculated right before the [SIGNATURE] section was added
# It can be reproduced/verified with md5sum if the file trimmed to the position right above [SIGNATURE]
# The new line character preceding [SIGNATURE] BELONGS to the signature (and needs to be stripped away for recalculating/verification)
Type md5
Hash e32e61c7752d77aacea549efac4e6a86
