# Pulseq sequence file
# Created by PyPulseq

# Created for Pulseq-CEST
# https://pulseq-cest.github.io/
# Created by: DANIEL MIKSCH
# Created at: 25-Apr-2025 22:15:18

[VERSION]
major 1
minor 4
revision 2

[DEFINITIONS]
AdcRasterTime 1e-07 
B0 17 
BlockDurationRaster 1e-05 
FREQ 723.7988 
GradientRasterTime 1e-06 
M0_offset 0.0 
RadiofrequencyRasterTime 1e-06 
TotalDuration 0.016 
flip_angle_180_deg 180 
flip_angle_90_deg 90 
num_meas 1 
offsets_ppm 0 
seq_id_string SE_opt 

# Format of blocks:
# NUM DUR RF  GX  GY  GZ  ADC  EXT
[BLOCKS]
1 100   0   0   0   0  0  0
2 200   1   0   0   0  0  0
3 1000   0   0   0   0  0  0
4 200   2   0   0   0  0  0
5 100   0   0   0   0  1  0

# Format of RF events:
# id amplitude mag_id phase_id time_shape_id delay freq phase
# ..        Hz   ....     ....          ....    us   Hz   rad
[RF]
1      740.795 1 2 3 0 0 0
2       997.19 4 5 3 0 0 0

# Format of ADC events:
# id num dwell delay freq phase
# ..  ..    ns    us   Hz   rad
[ADC]
1 1 1000000 0 0 0

# Sequence Shapes
[SHAPES]

shape_id 1
num_samples 286
4.592057e-07
0.0313863144
0.0334469835
0.0374749491
0.0387869318
0.0423324631
0.0405690885
0.0411166612
0.0328153868
0.0291428354
0.0508009822
0.027831706
0.0286013261
0.0408576758
0.0392823725
0.0332635179
0.0473402086
0.0339410204
0.032741979
0.0277519667
0.0415891458
0.0474522894
0.0381560252
0.0433336212
0.0262942414
0.0465860616
0.0319740883
0.0384591123
0.0313447627
0.03821485
0.0395073711
0.0380637627
0.0348783835
0.0334749309
0.0312713089
0.0242924855
0.0384791135
0.0334964683
0.0434556736
0.0393180499
0.0511513133
0.0278164051
0.0363108802
0.0433889724
0.0364294923
0.0330319455
0.0454766855
0.0446613613
0.0288273737
0.0158062448
0.0508406556
0.0411099283
0.0389575431
0.0305315887
0.0480123078
0.0364774408
0.0412412249
0.0296474238
0.0445617895
0.0424550076
0.0499268949
0.0449243674
0.0284292096
0.0182856639
0.0434744356
0.04728362
0.0267333011
0.0385153308
0.0371586248
0.0355578667
0.0442312242
0.038479972
0.0108715041
0.0343318635
0.0388898631
0.016805456
0.0488073776
0.0364181287
0.0352829252
0.0314321412
0.0438035753
0.0295300326
0.0386516454
0.0416194446
0.0439354433
0.0491667813
0.0365705093
0.0486929543
0.0271692845
0.0313688676
0.051404143
0.0307909964
0.0421755628
0.0392111637
0.00634354333
0.0523270485
0.0413714886
0.0326118425
0.0380024209
0.0413910666
0.0416139323
0.0330024705
0.0414811866
0.0430559398
0.0415936829
0.0342639261
0.0409810737
0.0321357458
0.0293109835
0.0461206826
0.0367310134
0.0291074225
0.0335537039
0.05091302
0.0298053058
0.0437414963
0.0476138992
0.0428076231
0.0425046014
0.0332609514
0.050175315
0.0413269488
0.0464412339
0.0330670305
0.035602228
0.046370579
0.0333782861
0.0300173111
0.0453357919
0.0331142989
0.0312382639
0.0537832923
0.0462998278
0.0169618328
0.0546097849
0.0465884199
0.0437928391
0.0366691548
0.0479952384
0.0475537027
0.0354756556
0.044940921
0.0463627859
0.0472910187
0.040365993
0.0394776672
0.0331366372
0.0419578108
0.053472119
0.0485946155
0.047041021
0.0390890321
0.0504198095
0.048194181
0.0460343672
0.0513020804
0.0480263431
0.0433345766
0.0485707629
0.0433732979
0.0495062917
0.0494520074
0.049188253
0.0488180475
0.0466638165
0.0504058554
0.0446726806
0.045798216
0.0471834728
0.0523432691
0.047837894
0.0476145085
0.0439037778
0.0502093477
0.0522774216
0.0520566486
0.0531820714
0.0484756432
0.0540785531
0.0519305624
0.0472955203
0.0510074688
0.0522614251
0.048379129
0.0495524678
0.0444957817
0.0503896608
0.054543405
0.0574658449
0.052297356
0.0499622011
0.0529818045
0.0545991564
0.0526084679
0.057900048
0.0580943104
0.0574211577
0.0541112769
0.0566965043
0.0549158313
0.0305787013
0.0557626852
0.0552561338
0.0570624704
0.0546406358
0.0051685747
0.0541441348
0.0563229841
0.0684628935
0.0502777219
0.0567343715
0.040327842
0.0988342735
0.056785709
0.0397282157
0.0531369919
0.0683779311
0.142386773
0.242925807
0.0695975924
0.201129369
0.00206730494
0.200629891
0.355715447
0.267792276
0.391246134
0.212615895
0.150051944
0.146384087
0.230355428
0.343958909
0.426368225
0.367761718
0.461948668
0.330998488
0.319176451
0.345318329
0.495542218
0.346200898
0.463921728
0.662144231
0.374087889
0.652618243
0.501231891
0.675830788
0.554312926
0.439558256
0.734040519
0.731552639
0.5240672
0.800428901
0.521910478
0.568319357
0.700653229
0.707742043
0.861784531
0.899308809
0.588394445
0.757583114
0.672098628
0.917201734
0.688599454
0.748352705
0.875856055
0.706537887
0.923659193
0.772468283
0.968818795
0.792523922
0.78781885
0.966624631
0.854685536
0.887360711
1
0.897043279
0.890443814
0.886834659
0.692738515
0.686609865
0.836591584
0.868789149
0.899281426
0.695189757
0.834044657
0.709483061
4.08135736e-07

shape_id 2
num_samples 286
0.5
-0.5
0
0
217
0.5
-0.5
0
0
61

shape_id 3
num_samples 286
3.4965035
6.993007
6.993007
4
6.9930069
6.993007
6.993007
11
6.9930069
6.993007
6.993007
12
6.9930069
6.993007
6.993007
11
6.9930069
6.993007
6.993007
11
6.9930069
6.993007
6.993007
12
6.9930069
6.993007
6.993007
11
6.9930069
6.993007
6.993007
11
6.9930069
6.993007
6.993007
12
6.9930069
6.993007
6.993007
11
6.9930069
6.993007
6.993007
11
6.9930069
6.993007
6.993007
11
6.9930069
6.993007
6.993007
12
6.9930069
6.993007
6.993007
11
6.9930069
6.993007
6.993007
11
6.9930069
6.993007
6.993007
12
6.9930069
6.993007
6.993007
11
6.9930069
6.993007
6.993007
11
6.9930069
6.993007
6.993007
12
6.9930069
6.993007
6.993007
11
6.9930069
6.993007
6.993007
4

shape_id 4
num_samples 286
5.59953303e-06
0.0333155681
0.0373943826
0.0212009573
0.0304490211
0.036866802
0.0212054172
0.0290867802
0.0313366711
0.033357224
0.0310191966
0.0297662812
0.0341101396
0.0381952711
0.0249692793
0.0352805131
0.0353986336
0.0325885371
0.0314986542
0.0362455279
0.0393845254
0.0392009568
0.0331968988
0.0272398705
0.0231584012
0.0332792855
0.0201490984
0.0305061098
0.032373308
0.0348763784
0.0246195993
0.0336034828
0.0289906839
0.0351353082
0.0297638285
0.025991131
0.0218224549
0.023297381
0.0241087232
0.0320892497
0.038018313
0.0333215601
0.0285127501
0.0249685408
0.0351032566
0.0304893717
0.0228526838
0.0367956597
0.0412552692
0.0333394117
0.0308274557
0.0261185749
0.0398219386
0.0347761887
0.030831576
0.0405011494
0.0389302279
0.0372234424
0.0394451303
0.0388519587
0.0409739395
0.0432744379
0.0329868707
0.0429942269
0.0419315225
0.037754985
0.0257956576
0.0424711793
0.0386883224
0.040796761
0.140245919
0.123649278
0.156356897
0.190511679
0.388382229
0.125555636
0.549595048
0.332250216
0.438988263
0.630552963
0.446124673
0.388011415
0.57051166
0.652119106
0.751152233
0.604260011
0.649250081
0.792851539
0.77031096
0.600775357
0.614775201
0.500580152
0.539797241
0.572832284
0.768489156
0.736421718
0.850191511
0.989502741
0.648489746
0.769767893
0.743665878
0.654119413
0.800651821
0.697975947
0.781317184
0.912571718
0.916546543
0.893551658
0.858185924
0.763529383
0.595596403
0.64506217
1
0.643877617
0.627296768
0.657525264
0.69733155
0.957629974
0.632044052
0.677064988
0.674423956
0.645134124
0.728849561
0.737510142
0.912681534
0.606571431
0.935207569
0.907193867
0.680573341
0.797790748
0.82008705
0.742939432
0.811928028
0.648425182
0.669049594
0.732910727
0.911964512
0.743390426
0.71756965
0.750738997
0.684108707
0.469438837
0.619066198
0.807945917
0.737364435
0.455268943
0.494900632
0.84967625
0.685266459
0.806258687
0.518072456
0.683743303
0.37536769
0.570697287
0.551656577
0.421159875
0.434155317
0.471997954
0.562981272
0.659293784
0.671595278
0.23391006
0.421403954
0.438023198
0.368713509
0.374640916
0.192282803
0.538598377
0.417105768
0.380379053
0.109757163
0.440892478
0.363034161
8.33679509e-05
0.411875911
0.184626268
0.369761497
0.326883016
0.190033554
0.03630583
0.0333377639
0.223427476
0.0363379683
0.0408249356
0.135801278
0.0484078823
0.0407218901
0.0411485271
0.0222172642
0.0418150383
0.040766155
0.0267241592
0.0200359057
0.036878495
0.039290208
0.0396444196
0.041121761
0.0411528805
0.0397272297
0.0421628448
0.0390346202
0.0414923804
0.0381738996
0.0355593635
0.0410260431
0.0400615785
0.041310036
0.0350096428
0.040494543
0.0350218333
0.0405486394
0.0397289445
0.0358444851
0.0368244916
0.0372518016
0.0387365777
0.0339566952
0.0286943494
0.0379086886
0.0364353857
0.0422903254
0.0353748669
0.0324240817
0.0344134174
0.0242702805
0.0223930139
0.0254001895
0.0386195576
0.0351437247
0.0176798559
0.0234282107
0.0365049375
0.0324610386
0.0382781197
0.0372381007
0.0375131372
0.0300741576
0.0406973065
0.0397110426
0.0325727344
0.0261018045
0.0174091941
0.0368893618
0.0326439217
0.0276355449
0.0309259463
0.0282999477
0.0257921072
0.0381386277
0.0309797947
0.0329643311
0.031325386
0.0326038986
0.0370088624
0.0322120133
0.0263276738
0.0300048925
0.0319178076
0.0318968479
0.0256892313
0.0186405321
0.0337429377
0.0371092465
0.0140706785
0.0364381988
0.0278356336
0.0381174089
0.036604527
0.0248352515
0.0348601173
0.0299433034
0.0341665407
0.0256282554
0.0365724811
0.0315457255
0.0338081503
0.0373299488
0.0284964247
0.0331060732
0.0321274209
0.0245873198
0.0327157498
0.0358141377
0.0344008881
0.0296451604
1.04918619e-06

shape_id 5
num_samples 286
0
0
284


[SIGNATURE]
# This is the hash of the Pulseq file, calculated right before the [SIGNATURE] section was added
# It can be reproduced/verified with md5sum if the file trimmed to the position right above [SIGNATURE]
# The new line character preceding [SIGNATURE] BELONGS to the signature (and needs to be stripped away for recalculating/verification)
Type md5
Hash edaf86c37047390b72ba48b2ccc78b0c
