# Pulseq sequence file
# Created by PyPulseq

# Created for Pulseq-CEST
# https://pulseq-cest.github.io/
# Created by: DANIEL MIKSCH
# Created at: 22-Apr-2025 23:12:16

[VERSION]
major 1
minor 4
revision 2

[DEFINITIONS]
AdcRasterTime 1e-07 
B0 17 
BlockDurationRaster 1e-05 
FREQ 723.7988 
GradientRasterTime 1e-05 
M0_offset 0.0 
RadiofrequencyRasterTime 1e-06 
TotalDuration 0.004 
a 40 
n_ETM 1 
num_meas 1 
offsets_ppm 0 
seq_id_string sinc 

# Format of blocks:
# NUM DUR RF  GX  GY  GZ  ADC  EXT
[BLOCKS]
1 100   0   0   0   0  0  0
2 200   1   0   0   0  0  0
3 100   0   0   0   0  1  0

# Format of RF events:
# id amplitude mag_id phase_id time_shape_id delay freq phase
# ..        Hz   ....     ....          ....    us   Hz   rad
[RF]
1      246.141 1 2 0 0 0 0

# Format of ADC events:
# id num dwell delay freq phase
# ..  ..    ns    us   Hz   rad
[ADC]
1 1 1000000 0 0 0

# Sequence Shapes
[SHAPES]

shape_id 1
num_samples 2000
0.000500250125
0.00150223361
0.00250616672
0.00351201571
0.00451974671
0.0055293257
0.00654071855
0.007553891
0.00856880864
0.00958543697
0.0106037413
0.011623687
0.0126452389
0.0136683623
0.0146930218
0.0157191823
0.0167468083
0.0177758644
0.0188063149
0.0198381241
0.0208712561
0.021905675
0.0229413447
0.0239782289
0.0250162914
0.0260554958
0.0270958054
0.0281371837
0.0291795939
0.0302229992
0.0312673625
0.0323126469
0.033358815
0.0344058297
0.0354536536
0.0365022492
0.0375515788
0.0386016049
0.0396522896
0.040703595
0.0417554833
0.0428079162
0.0438608557
0.0449142635
0.0459681012
0.0470223304
0.0480769126
0.0491318091
0.0501869813
0.0512423904
0.0522979975
0.0533537636
0.0544096497
0.0554656166
0.0565216252
0.0575776363
0.0586336103
0.0596895079
0.0607452896
0.0618009157
0.0628563467
0.0639115428
0.0649664641
0.0660210708
0.067075323
0.0681291806
0.0691826036
0.0702355518
0.071287985
0.0723398629
0.0733911452
0.0744417916
0.0754917614
0.0765410143
0.0775895096
0.0786372068
0.0796840651
0.0807300439
0.0817751022
0.0828191993
0.0838622944
0.0849043464
0.0859453143
0.0869851572
0.088023834
0.0890613035
0.0900975246
0.091132456
0.0921660566
0.0931982851
0.0942291
0.0952584602
0.0962863241
0.0973126503
0.0983373975
0.099360524
0.100381988
0.101401749
0.102419765
0.103435993
0.104450394
0.105462924
0.106473542
0.107482207
0.108488876
0.109493509
0.110496063
0.111496496
0.112494768
0.113490835
0.114484656
0.11547619
0.116465394
0.117452227
0.118436647
0.119418611
0.120398079
0.121375008
0.122349356
0.123321082
0.124290144
0.125256499
0.126220107
0.127180924
0.12813891
0.129094022
0.130046219
0.130995459
0.1319417
0.1328849
0.133825017
0.13476201
0.135695837
0.136626456
0.137553825
0.138477904
0.139398649
0.14031602
0.141229975
0.142140472
0.143047469
0.143950926
0.1448508
0.145747051
0.146639636
0.147528515
0.148413645
0.149294986
0.150172496
0.151046135
0.15191586
0.15278163
0.153643405
0.154501144
0.155354804
0.156204346
0.157049728
0.15789091
0.15872785
0.159560509
0.160388844
0.161212815
0.162032382
0.162847504
0.163658141
0.164464252
0.165265797
0.166062735
0.166855026
0.16764263
0.168425507
0.169203616
0.169976918
0.170745373
0.171508941
0.172267582
0.173021256
0.173769924
0.174513547
0.175252084
0.175985496
0.176713744
0.177436789
0.178154592
0.178867113
0.179574314
0.180276155
0.180972599
0.181663605
0.182349136
0.183029153
0.183703617
0.184372491
0.185035736
0.185693313
0.186345185
0.186991314
0.187631662
0.188266192
0.188894865
0.189517644
0.190134492
0.190745371
0.191350244
0.191949074
0.192541825
0.193128458
0.193708938
0.194283228
0.194851291
0.195413091
0.195968592
0.196517757
0.197060551
0.197596937
0.19812688
0.198650344
0.199167293
0.199677693
0.200181507
0.200678702
0.20116924
0.201653089
0.202130213
0.202600577
0.203064147
0.203520889
0.203970768
0.20441375
0.204849802
0.20527889
0.20570098
0.206116038
0.206524032
0.206924928
0.207318693
0.207705294
0.208084698
0.208456874
0.208821787
0.209179407
0.209529701
0.209872637
0.210208184
0.210536308
0.21085698
0.211170168
0.211475841
0.211773967
0.212064516
0.212347458
0.212622761
0.212890395
0.213150331
0.213402538
0.213646986
0.213883646
0.214112489
0.214333484
0.214546603
0.214751818
0.214949099
0.215138417
0.215319745
0.215493053
0.215658315
0.215815502
0.215964586
0.216105541
0.216238338
0.216362951
0.216479353
0.216587516
0.216687415
0.216779024
0.216862315
0.216937263
0.217003843
0.217062029
0.217111794
0.217153115
0.217185967
0.217210323
0.217226161
0.217233455
0.217232182
0.217222317
0.217203837
0.217176718
0.217140937
0.21709647
0.217043296
0.21698139
0.216910731
0.216831296
0.216743064
0.216646012
0.216540118
0.216425362
0.216301722
0.216169177
0.216027706
0.215877289
0.215717905
0.215549535
0.215372158
0.215185754
0.214990305
0.214785791
0.214572193
0.214349492
0.214117669
0.213876707
0.213626587
0.213367292
0.213098803
0.212821104
0.212534176
0.212238004
0.21193257
0.211617858
0.211293852
0.210960536
0.210617893
0.210265909
0.209904568
0.209533855
0.209153755
0.208764253
0.208365336
0.207956989
0.207539198
0.20711195
0.206675231
0.206229028
0.205773329
0.20530812
0.204833389
0.204349124
0.203855313
0.203351945
0.202839007
0.20231649
0.201784381
0.20124267
0.200691348
0.200130403
0.199559825
0.198979606
0.198389735
0.197790204
0.197181003
0.196562125
0.195933559
0.1952953
0.194647337
0.193989665
0.193322275
0.19264516
0.191958314
0.191261729
0.1905554
0.189839321
0.189113486
0.188377888
0.187632523
0.186877386
0.186112472
0.185337776
0.184553295
0.183759023
0.182954958
0.182141097
0.181317434
0.180483969
0.179640698
0.178787619
0.177924729
0.177052027
0.176169511
0.17527718
0.174375032
0.173463068
0.172541286
0.171609686
0.170668268
0.169717032
0.168755979
0.16778511
0.166804425
0.165813927
0.164813616
0.163803495
0.162783565
0.16175383
0.160714291
0.159664952
0.158605816
0.157536886
0.156458167
0.155369662
0.154271375
0.153163312
0.152045476
0.150917874
0.14978051
0.148633391
0.147476522
0.146309909
0.145133559
0.143947478
0.142751675
0.141546155
0.140330927
0.139105998
0.137871377
0.136627072
0.135373092
0.134109445
0.132836141
0.131553189
0.130260599
0.128958382
0.127646547
0.126325105
0.124994066
0.123653443
0.122303247
0.120943488
0.11957418
0.118195334
0.116806962
0.115409079
0.114001695
0.112584826
0.111158485
0.109722685
0.10827744
0.106822766
0.105358676
0.103885185
0.10240231
0.100910065
0.0994084659
0.0978975291
0.0963772708
0.0948477076
0.0933088562
0.0917607339
0.0902033581
0.0886367463
0.0870609166
0.0854758871
0.0838816764
0.0822783031
0.0806657864
0.0790441454
0.0774133997
0.0757735691
0.0741246738
0.0724667341
0.0707997706
0.0691238041
0.0674388559
0.0657449474
0.0640421002
0.0623303364
0.060609678
0.0588801477
0.0571417681
0.0553945623
0.0536385535
0.0518737653
0.0501002214
0.048317946
0.0465269634
0.0447272981
0.042918975
0.0411020192
0.0392764561
0.0374423112
0.0355996106
0.0337483802
0.0318886466
0.0300204364
0.0281437765
0.026258694
0.0243652165
0.0224633716
0.0205531872
0.0186346915
0.016707913
0.0147728804
0.0128296227
0.010878169
0.00891854875
0.00695079177
0.00497492797
0.00299098756
0.000999000999
0.001001001
0.00300898748
0.00502492725
0.00704878884
0.00908054056
0.0111201505
0.0131675864
0.0152228159
0.0172858062
0.0193565246
0.0214349378
0.0235210124
0.0256147148
0.0277160111
0.0298248671
0.0319412486
0.0340651209
0.0361964493
0.0383351985
0.0404813334
0.0426348183
0.0447956176
0.0469636952
0.0491390148
0.0513215401
0.0535112342
0.0557080604
0.0579119813
0.0601229597
0.062340958
0.0645659382
0.0667978623
0.0690366921
0.071282389
0.0735349142
0.0757942289
0.0780602939
0.0803330697
0.0826125167
0.0848985951
0.0871912649
0.0894904857
0.0917962171
0.0941084184
0.0964270487
0.0987520668
0.101083431
0.103421101
0.105765034
0.108115188
0.110471521
0.112833991
0.115202554
0.117577169
0.119957793
0.122344381
0.124736891
0.12713528
0.129539502
0.131949515
0.134365274
0.136786734
0.139213852
0.141646582
0.144084879
0.146528698
0.148977994
0.151432722
0.153892834
0.156358287
0.158829033
0.161305026
0.163786219
0.166272567
0.168764022
0.171260536
0.173762064
0.176268557
0.178779968
0.18129625
0.183817353
0.186343231
0.188873834
0.191409115
0.193949025
0.196493515
0.199042536
0.201596039
0.204153975
0.206716294
0.209282946
0.211853883
0.214429053
0.217008407
0.219591895
0.222179466
0.22477107
0.227366655
0.229966172
0.232569568
0.235176794
0.237787797
0.240402526
0.243020929
0.245642955
0.248268552
0.250897668
0.25353025
0.256166246
0.258805604
0.261448271
0.264094195
0.266743322
0.269395599
0.272050974
0.274709393
0.277370802
0.280035149
0.282702379
0.285372439
0.288045274
0.290720831
0.293399056
0.296079894
0.298763291
0.301449193
0.304137544
0.30682829
0.309521376
0.312216748
0.31491435
0.317614127
0.320316023
0.323019984
0.325725953
0.328433876
0.331143696
0.333855358
0.336568806
0.339283983
0.342000834
0.344719303
0.347439333
0.350160867
0.35288385
0.355608225
0.358333935
0.361060924
0.363789134
0.366518509
0.369248992
0.371980526
0.374713053
0.377446517
0.38018086
0.382916024
0.385651953
0.388388589
0.391125875
0.393863752
0.396602163
0.39934105
0.402080356
0.404820022
0.407559991
0.410300204
0.413040604
0.415781133
0.418521732
0.421262342
0.424002907
0.426743367
0.429483664
0.43222374
0.434963536
0.437702993
0.440442054
0.44318066
0.445918751
0.44865627
0.451393158
0.454129355
0.456864804
0.459599445
0.462333219
0.465066069
0.467797934
0.470528756
0.473258476
0.475987036
0.478714375
0.481440436
0.484165159
0.486888485
0.489610356
0.492330711
0.495049493
0.497766642
0.500482099
0.503195805
0.5059077
0.508617727
0.511325826
0.514031937
0.516736002
0.519437961
0.522137757
0.524835328
0.527530618
0.530223566
0.532914113
0.535602201
0.53828777
0.540970762
0.543651118
0.546328778
0.549003684
0.551675777
0.554344998
0.557011289
0.55967459
0.562334842
0.564991988
0.567645968
0.570296723
0.572944196
0.575588327
0.578229057
0.580866329
0.583500084
0.586130263
0.588756809
0.591379662
0.593998764
0.596614058
0.599225485
0.601832986
0.604436505
0.607035982
0.60963136
0.612222581
0.614809588
0.617392321
0.619970724
0.62254474
0.62511431
0.627679376
0.630239882
0.632795771
0.635346984
0.637893465
0.640435156
0.642972001
0.645503943
0.648030924
0.650552888
0.653069778
0.655581537
0.658088109
0.660589438
0.663085467
0.66557614
0.6680614
0.670541192
0.673015459
0.675484147
0.677947198
0.680404557
0.682856169
0.685301978
0.687741929
0.690175967
0.692604036
0.695026081
0.697442048
0.699851881
0.702255526
0.704652929
0.707044034
0.709428788
0.711807137
0.714179025
0.7165444
0.718903208
0.721255394
0.723600905
0.725939688
0.728271689
0.730596855
0.732915134
0.735226472
0.737530816
0.739828114
0.742118313
0.744401361
0.746677206
0.748945795
0.751207077
0.753461
0.755707512
0.757946563
0.760178099
0.762402072
0.764618428
0.766827118
0.769028091
0.771221296
0.773406683
0.775584201
0.777753801
0.779915433
0.782069047
0.784214594
0.786352023
0.788481286
0.790602335
0.792715119
0.79481959
0.796915701
0.799003401
0.801082644
0.803153381
0.805215565
0.807269148
0.809314082
0.81135032
0.813377816
0.815396521
0.817406391
0.819407377
0.821399434
0.823382516
0.825356577
0.827321571
0.829277452
0.831224176
0.833161697
0.83508997
0.83700895
0.838918593
0.840818855
0.842709692
0.844591059
0.846462914
0.848325211
0.850177909
0.852020964
0.853854334
0.855677975
0.857491845
0.859295903
0.861090105
0.862874411
0.864648779
0.866413167
0.868167535
0.869911841
0.871646045
0.873370106
0.875083985
0.876787641
0.878481034
0.880164125
0.881836876
0.883499246
0.885151196
0.886792689
0.888423687
0.890044149
0.89165404
0.893253322
0.894841956
0.896419906
0.897987135
0.899543607
0.901089284
0.902624131
0.904148112
0.905661191
0.907163333
0.908654502
0.910134663
0.911603783
0.913061826
0.914508758
0.915944546
0.917369155
0.918782553
0.920184706
0.921575581
0.922955146
0.924323368
0.925680215
0.927025655
0.928359657
0.92968219
0.930993221
0.932292722
0.93358066
0.934857006
0.93612173
0.937374802
0.938616192
0.939845871
0.941063811
0.942269983
0.943464359
0.944646909
0.945817607
0.946976425
0.948123336
0.949258312
0.950381327
0.951492355
0.952591369
0.953678343
0.954753253
0.955816071
0.956866775
0.957905338
0.958931736
0.959945945
0.960947941
0.961937701
0.962915201
0.963880419
0.96483333
0.965773913
0.966702146
0.967618007
0.968521474
0.969412526
0.970291142
0.9711573
0.972010982
0.972852165
0.973680832
0.974496961
0.975300535
0.976091533
0.976869937
0.977635729
0.97838889
0.979129404
0.979857251
0.980572416
0.981274881
0.98196463
0.982641646
0.983305913
0.983957416
0.984596139
0.985222068
0.985835186
0.986435481
0.987022937
0.98759754
0.988159278
0.988708137
0.989244104
0.989767166
0.99027731
0.990774526
0.9912588
0.991730122
0.99218848
0.992633864
0.993066263
0.993485666
0.993892065
0.994285448
0.994665808
0.995033134
0.995387418
0.995728653
0.996056829
0.996371939
0.996673975
0.996962931
0.997238799
0.997501573
0.997751247
0.997987815
0.998211271
0.99842161
0.998618827
0.998802917
0.998973876
0.999131701
0.999276386
0.999407929
0.999526326
0.999631575
0.999723674
0.999802619
0.99986841
0.999921045
0.999960522
0.999986841
1
1
0.999986841
0.999960522
0.999921045
0.99986841
0.999802619
0.999723674
0.999631575
0.999526326
0.999407929
0.999276386
0.999131701
0.998973876
0.998802917
0.998618827
0.99842161
0.998211271
0.997987815
0.997751247
0.997501573
0.997238799
0.996962931
0.996673975
0.996371939
0.996056829
0.995728653
0.995387418
0.995033134
0.994665808
0.994285448
0.993892065
0.993485666
0.993066263
0.992633864
0.99218848
0.991730122
0.9912588
0.990774526
0.99027731
0.989767166
0.989244104
0.988708137
0.988159278
0.98759754
0.987022937
0.986435481
0.985835186
0.985222068
0.984596139
0.983957416
0.983305913
0.982641646
0.98196463
0.981274881
0.980572416
0.979857251
0.979129404
0.97838889
0.977635729
0.976869937
0.976091533
0.975300535
0.974496961
0.973680832
0.972852165
0.972010982
0.9711573
0.970291142
0.969412526
0.968521474
0.967618007
0.966702146
0.965773913
0.96483333
0.963880419
0.962915201
0.961937701
0.960947941
0.959945945
0.958931736
0.957905338
0.956866775
0.955816071
0.954753253
0.953678343
0.952591369
0.951492355
0.950381327
0.949258312
0.948123336
0.946976425
0.945817607
0.944646909
0.943464359
0.942269983
0.941063811
0.939845871
0.938616192
0.937374802
0.93612173
0.934857006
0.93358066
0.932292722
0.930993221
0.92968219
0.928359657
0.927025655
0.925680215
0.924323368
0.922955146
0.921575581
0.920184706
0.918782553
0.917369155
0.915944546
0.914508758
0.913061826
0.911603783
0.910134663
0.908654502
0.907163333
0.905661191
0.904148112
0.902624131
0.901089284
0.899543607
0.897987135
0.896419906
0.894841956
0.893253322
0.89165404
0.890044149
0.888423687
0.886792689
0.885151196
0.883499246
0.881836876
0.880164125
0.878481034
0.876787641
0.875083985
0.873370106
0.871646045
0.869911841
0.868167535
0.866413167
0.864648779
0.862874411
0.861090105
0.859295903
0.857491845
0.855677975
0.853854334
0.852020964
0.850177909
0.848325211
0.846462914
0.844591059
0.842709692
0.840818855
0.838918593
0.83700895
0.83508997
0.833161697
0.831224176
0.829277452
0.827321571
0.825356577
0.823382516
0.821399434
0.819407377
0.817406391
0.815396521
0.813377816
0.81135032
0.809314082
0.807269148
0.805215565
0.803153381
0.801082644
0.799003401
0.796915701
0.79481959
0.792715119
0.790602335
0.788481286
0.786352023
0.784214594
0.782069047
0.779915433
0.777753801
0.775584201
0.773406683
0.771221296
0.769028091
0.766827118
0.764618428
0.762402072
0.760178099
0.757946563
0.755707512
0.753461
0.751207077
0.748945795
0.746677206
0.744401361
0.742118313
0.739828114
0.737530816
0.735226472
0.732915134
0.730596855
0.728271689
0.725939688
0.723600905
0.721255394
0.718903208
0.7165444
0.714179025
0.711807137
0.709428788
0.707044034
0.704652929
0.702255526
0.699851881
0.697442048
0.695026081
0.692604036
0.690175967
0.687741929
0.685301978
0.682856169
0.680404557
0.677947198
0.675484147
0.673015459
0.670541192
0.6680614
0.66557614
0.663085467
0.660589438
0.658088109
0.655581537
0.653069778
0.650552888
0.648030924
0.645503943
0.642972001
0.640435156
0.637893465
0.635346984
0.632795771
0.630239882
0.627679376
0.62511431
0.62254474
0.619970724
0.617392321
0.614809588
0.612222581
0.60963136
0.607035982
0.604436505
0.601832986
0.599225485
0.596614058
0.593998764
0.591379662
0.588756809
0.586130263
0.583500084
0.580866329
0.578229057
0.575588327
0.572944196
0.570296723
0.567645968
0.564991988
0.562334842
0.55967459
0.557011289
0.554344998
0.551675777
0.549003684
0.546328778
0.543651118
0.540970762
0.53828777
0.535602201
0.532914113
0.530223566
0.527530618
0.524835328
0.522137757
0.519437961
0.516736002
0.514031937
0.511325826
0.508617727
0.5059077
0.503195805
0.500482099
0.497766642
0.495049493
0.492330711
0.489610356
0.486888485
0.484165159
0.481440436
0.478714375
0.475987036
0.473258476
0.470528756
0.467797934
0.465066069
0.462333219
0.459599445
0.456864804
0.454129355
0.451393158
0.44865627
0.445918751
0.44318066
0.440442054
0.437702993
0.434963536
0.43222374
0.429483664
0.426743367
0.424002907
0.421262342
0.418521732
0.415781133
0.413040604
0.410300204
0.407559991
0.404820022
0.402080356
0.39934105
0.396602163
0.393863752
0.391125875
0.388388589
0.385651953
0.382916024
0.38018086
0.377446517
0.374713053
0.371980526
0.369248992
0.366518509
0.363789134
0.361060924
0.358333935
0.355608225
0.35288385
0.350160867
0.347439333
0.344719303
0.342000834
0.339283983
0.336568806
0.333855358
0.331143696
0.328433876
0.325725953
0.323019984
0.320316023
0.317614127
0.31491435
0.312216748
0.309521376
0.30682829
0.304137544
0.301449193
0.298763291
0.296079894
0.293399056
0.290720831
0.288045274
0.285372439
0.282702379
0.280035149
0.277370802
0.274709393
0.272050974
0.269395599
0.266743322
0.264094195
0.261448271
0.258805604
0.256166246
0.25353025
0.250897668
0.248268552
0.245642955
0.243020929
0.240402526
0.237787797
0.235176794
0.232569568
0.229966172
0.227366655
0.22477107
0.222179466
0.219591895
0.217008407
0.214429053
0.211853883
0.209282946
0.206716294
0.204153975
0.201596039
0.199042536
0.196493515
0.193949025
0.191409115
0.188873834
0.186343231
0.183817353
0.18129625
0.178779968
0.176268557
0.173762064
0.171260536
0.168764022
0.166272567
0.163786219
0.161305026
0.158829033
0.156358287
0.153892834
0.151432722
0.148977994
0.146528698
0.144084879
0.141646582
0.139213852
0.136786734
0.134365274
0.131949515
0.129539502
0.12713528
0.124736891
0.122344381
0.119957793
0.117577169
0.115202554
0.112833991
0.110471521
0.108115188
0.105765034
0.103421101
0.101083431
0.0987520668
0.0964270487
0.0941084184
0.0917962171
0.0894904857
0.0871912649
0.0848985951
0.0826125167
0.0803330697
0.0780602939
0.0757942289
0.0735349142
0.071282389
0.0690366921
0.0667978623
0.0645659382
0.062340958
0.0601229597
0.0579119813
0.0557080604
0.0535112342
0.0513215401
0.0491390148
0.0469636952
0.0447956176
0.0426348183
0.0404813334
0.0383351985
0.0361964493
0.0340651209
0.0319412486
0.0298248671
0.0277160111
0.0256147148
0.0235210124
0.0214349378
0.0193565246
0.0172858062
0.0152228159
0.0131675864
0.0111201505
0.00908054056
0.00704878884
0.00502492725
0.00300898748
0.001001001
0.000999000999
0.00299098756
0.00497492797
0.00695079177
0.00891854875
0.010878169
0.0128296227
0.0147728804
0.016707913
0.0186346915
0.0205531872
0.0224633716
0.0243652165
0.026258694
0.0281437765
0.0300204364
0.0318886466
0.0337483802
0.0355996106
0.0374423112
0.0392764561
0.0411020192
0.042918975
0.0447272981
0.0465269634
0.048317946
0.0501002214
0.0518737653
0.0536385535
0.0553945623
0.0571417681
0.0588801477
0.060609678
0.0623303364
0.0640421002
0.0657449474
0.0674388559
0.0691238041
0.0707997706
0.0724667341
0.0741246738
0.0757735691
0.0774133997
0.0790441454
0.0806657864
0.0822783031
0.0838816764
0.0854758871
0.0870609166
0.0886367463
0.0902033581
0.0917607339
0.0933088562
0.0948477076
0.0963772708
0.0978975291
0.0994084659
0.100910065
0.10240231
0.103885185
0.105358676
0.106822766
0.10827744
0.109722685
0.111158485
0.112584826
0.114001695
0.115409079
0.116806962
0.118195334
0.11957418
0.120943488
0.122303247
0.123653443
0.124994066
0.126325105
0.127646547
0.128958382
0.130260599
0.131553189
0.132836141
0.134109445
0.135373092
0.136627072
0.137871377
0.139105998
0.140330927
0.141546155
0.142751675
0.143947478
0.145133559
0.146309909
0.147476522
0.148633391
0.14978051
0.150917874
0.152045476
0.153163312
0.154271375
0.155369662
0.156458167
0.157536886
0.158605816
0.159664952
0.160714291
0.16175383
0.162783565
0.163803495
0.164813616
0.165813927
0.166804425
0.16778511
0.168755979
0.169717032
0.170668268
0.171609686
0.172541286
0.173463068
0.174375032
0.17527718
0.176169511
0.177052027
0.177924729
0.178787619
0.179640698
0.180483969
0.181317434
0.182141097
0.182954958
0.183759023
0.184553295
0.185337776
0.186112472
0.186877386
0.187632523
0.188377888
0.189113486
0.189839321
0.1905554
0.191261729
0.191958314
0.19264516
0.193322275
0.193989665
0.194647337
0.1952953
0.195933559
0.196562125
0.197181003
0.197790204
0.198389735
0.198979606
0.199559825
0.200130403
0.200691348
0.20124267
0.201784381
0.20231649
0.202839007
0.203351945
0.203855313
0.204349124
0.204833389
0.20530812
0.205773329
0.206229028
0.206675231
0.20711195
0.207539198
0.207956989
0.208365336
0.208764253
0.209153755
0.209533855
0.209904568
0.210265909
0.210617893
0.210960536
0.211293852
0.211617858
0.21193257
0.212238004
0.212534176
0.212821104
0.213098803
0.213367292
0.213626587
0.213876707
0.214117669
0.214349492
0.214572193
0.214785791
0.214990305
0.215185754
0.215372158
0.215549535
0.215717905
0.215877289
0.216027706
0.216169177
0.216301722
0.216425362
0.216540118
0.216646012
0.216743064
0.216831296
0.216910731
0.21698139
0.217043296
0.21709647
0.217140937
0.217176718
0.217203837
0.217222317
0.217232182
0.217233455
0.217226161
0.217210323
0.217185967
0.217153115
0.217111794
0.217062029
0.217003843
0.216937263
0.216862315
0.216779024
0.216687415
0.216587516
0.216479353
0.216362951
0.216238338
0.216105541
0.215964586
0.215815502
0.215658315
0.215493053
0.215319745
0.215138417
0.214949099
0.214751818
0.214546603
0.214333484
0.214112489
0.213883646
0.213646986
0.213402538
0.213150331
0.212890395
0.212622761
0.212347458
0.212064516
0.211773967
0.211475841
0.211170168
0.21085698
0.210536308
0.210208184
0.209872637
0.209529701
0.209179407
0.208821787
0.208456874
0.208084698
0.207705294
0.207318693
0.206924928
0.206524032
0.206116038
0.20570098
0.20527889
0.204849802
0.20441375
0.203970768
0.203520889
0.203064147
0.202600577
0.202130213
0.201653089
0.20116924
0.200678702
0.200181507
0.199677693
0.199167293
0.198650344
0.19812688
0.197596937
0.197060551
0.196517757
0.195968592
0.195413091
0.194851291
0.194283228
0.193708938
0.193128458
0.192541825
0.191949074
0.191350244
0.190745371
0.190134492
0.189517644
0.188894865
0.188266192
0.187631662
0.186991314
0.186345185
0.185693313
0.185035736
0.184372491
0.183703617
0.183029153
0.182349136
0.181663605
0.180972599
0.180276155
0.179574314
0.178867113
0.178154592
0.177436789
0.176713744
0.175985496
0.175252084
0.174513547
0.173769924
0.173021256
0.172267582
0.171508941
0.170745373
0.169976918
0.169203616
0.168425507
0.16764263
0.166855026
0.166062735
0.165265797
0.164464252
0.163658141
0.162847504
0.162032382
0.161212815
0.160388844
0.159560509
0.15872785
0.15789091
0.157049728
0.156204346
0.155354804
0.154501144
0.153643405
0.15278163
0.15191586
0.151046135
0.150172496
0.149294986
0.148413645
0.147528515
0.146639636
0.145747051
0.1448508
0.143950926
0.143047469
0.142140472
0.141229975
0.14031602
0.139398649
0.138477904
0.137553825
0.136626456
0.135695837
0.13476201
0.133825017
0.1328849
0.1319417
0.130995459
0.130046219
0.129094022
0.12813891
0.127180924
0.126220107
0.125256499
0.124290144
0.123321082
0.122349356
0.121375008
0.120398079
0.119418611
0.118436647
0.117452227
0.116465394
0.11547619
0.114484656
0.113490835
0.112494768
0.111496496
0.110496063
0.109493509
0.108488876
0.107482207
0.106473542
0.105462924
0.104450394
0.103435993
0.102419765
0.101401749
0.100381988
0.099360524
0.0983373975
0.0973126503
0.0962863241
0.0952584602
0.0942291
0.0931982851
0.0921660566
0.091132456
0.0900975246
0.0890613035
0.088023834
0.0869851572
0.0859453143
0.0849043464
0.0838622944
0.0828191993
0.0817751022
0.0807300439
0.0796840651
0.0786372068
0.0775895096
0.0765410143
0.0754917614
0.0744417916
0.0733911452
0.0723398629
0.071287985
0.0702355518
0.0691826036
0.0681291806
0.067075323
0.0660210708
0.0649664641
0.0639115428
0.0628563467
0.0618009157
0.0607452896
0.0596895079
0.0586336103
0.0575776363
0.0565216252
0.0554656166
0.0544096497
0.0533537636
0.0522979975
0.0512423904
0.0501869813
0.0491318091
0.0480769126
0.0470223304
0.0459681012
0.0449142635
0.0438608557
0.0428079162
0.0417554833
0.040703595
0.0396522896
0.0386016049
0.0375515788
0.0365022492
0.0354536536
0.0344058297
0.033358815
0.0323126469
0.0312673625
0.0302229992
0.0291795939
0.0281371837
0.0270958054
0.0260554958
0.0250162914
0.0239782289
0.0229413447
0.021905675
0.0208712561
0.0198381241
0.0188063149
0.0177758644
0.0167468083
0.0157191823
0.0146930218
0.0136683623
0.0126452389
0.011623687
0.0106037413
0.00958543697
0.00856880864
0.007553891
0.00654071855
0.0055293257
0.00451974671
0.00351201571
0.00250616672
0.00150223361
0.000500250125

shape_id 2
num_samples 2000
0.5
0
0
497
-0.5
0
0
997
0.5
0
0
497


[SIGNATURE]
# This is the hash of the Pulseq file, calculated right before the [SIGNATURE] section was added
# It can be reproduced/verified with md5sum if the file trimmed to the position right above [SIGNATURE]
# The new line character preceding [SIGNATURE] BELONGS to the signature (and needs to be stripped away for recalculating/verification)
Type md5
Hash ed35c612eb666e1de787bc6a8072499f
